7.279624209438523286e-01,7.246139677127431122e-01,7.133778632531028174e-01,6.951448263199371258e-01,6.709678255909365951e-01,6.419752286252053963e-01,6.092977801011323358e-01,5.740130641950469403e-01,5.371030672641293746e-01,4.994210220752640650e-01,4.616696616071703230e-01,4.243949848281415860e-01,3.879961766977840787e-01,3.527488411830922432e-01,3.188374871687691403e-01,2.863926151475117976e-01,2.555269449875142151e-01,2.263650027254346386e-01,1.990607460927991124e-01,1.737986624429960769e-01,1.507758270582446880e-01,1.301680481503041109e-01,1.120903590308771763e-01,9.656431549141500370e-02,8.350002105577608580e-02,7.269457080777685931e-02,6.384517691101322667e-02,5.657465249063401563e-02,5.046672327328805691e-02,4.510693403774958948e-02,4.012256382536338178e-02,3.521447935521936079e-02,3.017609777351393241e-02,2.489811174009868774e-02,1.936087821019105357e-02,1.361871876152204695e-02,7.781055284274349115e-03,1.993955350747816154e-03,-3.576813443820787281e-03,-8.762102858122060300e-03,-1.340602795067897569e-02,-1.738204351107004025e-02,-2.060581899657525085e-02,-2.304253767553882462e-02,-2.470815246076267860e-02,-2.566606930027257386e-02,-2.602148337262912350e-02,-2.591473668823700630e-02,-2.551322550482403029e-02,-2.500014865293461591e-02,-2.455897338541721681e-02,-2.435450808830924574e-02,-2.451354549541439123e-02,-2.510911504135045907e-02,-2.615179595792582745e-02,-2.758941936241452592e-02,-2.931429366521532201e-02,-3.117614835107368129e-02,-3.299910172508106060e-02,-3.460125252515987987e-02,-3.581531042378580110e-02,-3.650786873227161028e-02,-3.659438950103992283e-02,-3.604771265575588274e-02,-3.489945175691686052e-02,-3.323494104380100150e-02,-3.118327092375710111e-02,-2.890432693212509688e-02,-2.657414875224890088e-02,-2.436903255672331903e-02,-2.244918914249860106e-02,-2.094403856536561706e-02,-1.994141676438961411e-02,-1.948184559259292375e-02,-1.955773511589241689e-02,-2.011651878919520561e-02,-2.106655832834871192e-02,-2.228525025531563619e-02,-2.362951173369201921e-02,-2.494902622121152047e-02,-2.610165194745937486e-02,-2.696848624152046667e-02,-2.746526870366343756e-02,-2.754831844987860531e-02,-2.721536812967684932e-02,-2.650263328194330664e-02,-2.547941767586806711e-02,-2.424113444009270632e-02,-2.290081175556673426e-02,-2.157855734856854724e-02,-2.038927071580933295e-02,-1.943047323735215548e-02,-1.877239174406958658e-02,-1.845147823504900142e-02,-1.846800111936017577e-02,-1.878789910958228102e-02,-1.934786729451035484e-02,-2.006177975818044731e-02,-2.082744442257422265e-02,-2.153444038366955984e-02,-2.207410998453764733e-02,-2.235111632920374833e-02,-2.229433221932294179e-02,-2.186486641215227428e-02,-2.106025736483621569e-02,-1.991500283141453553e-02,-1.849799903101282533e-02,-1.690717274459326014e-02,-1.526105400612790507e-02,-1.368700997928896067e-02,-1.230701363857431702e-02,-1.122340733819460028e-02,-1.050742382454936986e-02,-1.019221657598875196e-02,-1.027095251508080946e-02,-1.069934380247784984e-02,-1.140113497580834065e-02,-1.227517764745513634e-02,-1.320364206770107719e-02,-1.406186354958053469e-02,-1.473019722029595552e-02,-1.510667905164550691e-02,-1.511797615347066498e-02,-1.472650064787073797e-02,-1.393289291060780845e-02,-1.277442555430786247e-02,-1.132080189678401523e-02,-9.668570436465061604e-03,-7.934029040627940677e-03,-6.243527031623829007e-03,-4.720938140879125250e-03,-3.474234964997000800e-03,-2.584113573103430025e-03,-2.096491603792263389e-03,-2.019082918182798191e-03,-2.321481381409446366e-03,-2.938061714299686298e-03,-3.773226198094744351e-03,-4.709116182752865962e-03,-5.616393586947996189e-03,-6.368018388269233200e-03,-6.854021593010497550e-03,-6.993853723161764374e-03,-6.743539154972996025e-03,-6.097122323546201074e-03,-5.084123459780306130e-03,-3.765573576809050967e-03,-2.230157337956242391e-03,-5.897576913640466311e-04,1.027773929227188739e-03,2.489776442597795621e-03,3.672385000532059005e-03,4.473793002947920767e-03,4.825434757113855090e-03,4.700726049529292683e-03,4.121142543395253655e-03,3.158825205460209697e-03,1.934146454945917613e-03,6.062286198163828943e-04,-6.446210384400074232e-04,-1.640963862264857229e-03,-2.234372167449860495e-03,-2.327908072688805556e-03,-1.889684054612203847e-03,-9.544275172773253454e-04,3.864387843054839099e-04,2.002198064270183531e-03,3.742528111440843273e-03,5.455703770464028629e-03,7.003763183869793178e-03,8.274254403629183879e-03,9.188100749853383639e-03,9.703244064341467676e-03,9.814666945053946226e-03,9.551860015465644949e-03,8.974298564784228410e-03,8.165270904862501414e-03,7.224728778956994099e-03,6.261582866741317518e-03,5.385074660795676968e-03,4.695069095148917890e-03,4.272626452305086468e-03,4.173035876130217273e-03,4.422402694541542091e-03,5.017241289330762882e-03,5.925828981436932763e-03,7.090243335676881670e-03,8.428643802608278002e-03,9.838498045047699286e-03,1.120252779861741210e-02,1.239867531634708184e-02,1.331306479489982597e-02,1.385301280398091965e-02,1.395747001084235613e-02,1.360366407069260077e-02,1.280958946273339817e-02,1.163260676713979806e-02,1.016485327019722891e-02,8.525705095105170009e-03,6.850696116926728585e-03,5.276774658562498506e-03,3.925779057070802845e-03,2.889601216587587163e-03,2.220226471942804338e-03,1.926263408885071091e-03,1.975754404586005895e-03,2.303446283672957312e-03,2.819956124764144961e-03,3.421175403636169017e-03,3.998097748583093018e-03,4.447771014443332484e-03,4.684459539970221506e-03,4.648515748353516941e-03,4.311017731407141770e-03,3.674215116022139585e-03,2.769208113725567591e-03,1.652332652420508956e-03,4.009255761416067546e-04,-8.920624735334716556e-04,-2.126068876051396845e-03,-3.204283289330283734e-03,-4.046642572557939029e-03,-4.600857911468317352e-03,-4.848574965488240164e-03,-4.806048800063065542e-03,-4.520598157528770214e-03,-4.064811414299713231e-03,-3.530027789687131476e-03,-3.019272700804532823e-03,-2.638589421753133931e-03,-2.486156595083699548e-03,-2.640720053927400786e-03,-3.152222049252931691e-03,-4.036461982023780738e-03,-5.273740545145614265e-03,-6.810655186819549942e-03,-8.564333142251691691e-03,-1.042856752260853254e-02,-1.228168663714574761e-02,-1.399665654657939948e-02,-1.545376080133106095e-02,-1.655444251390722141e-02,-1.723315764653859938e-02,-1.746434496526055868e-02,-1.726351355840838667e-02,-1.668350792489024098e-02,-1.580818632903013138e-02,-1.474537882521041385e-02,-1.361926878970089010e-02,-1.256081937554442279e-02,-1.169540892259789827e-02,-1.112924274880569032e-02,-1.093778740770112723e-02,-1.115874858792061455e-02,-1.178999724013411743e-02,-1.279117501251935546e-02,-1.408748141723154337e-02,-1.557519374665501839e-02,-1.712974608379563141e-02,-1.861756558977643514e-02,-1.991163660267694646e-02,-2.090841584817563353e-02,-2.154217081882242937e-02,-2.179342543016560621e-02,-2.169027667680515845e-02,-2.130334652291529171e-02,-2.073620604522852934e-02,-2.011327360534494527e-02,-1.956664518300440733e-02,-1.922240002718728427e-02,-1.918679127195655962e-02,-1.953405497120060119e-02,-2.029869798774982040e-02,-2.147413799983843158e-02,-2.301708443457784956e-02,-2.485502322676995043e-02,-2.689386938282676762e-02,-2.902447113593451672e-02,-3.112906708942404441e-02,-3.308988432443417393e-02,-3.480043435769286653e-02,-3.617710610144921762e-02,-3.716759672021467675e-02,-3.775439618443233308e-02,-3.795359842596362360e-02,-3.781032545548419777e-02,-3.739259390591428284e-02,-3.678547097892794632e-02,-3.608605361334849687e-02,-3.539772494695485328e-02,-3.482154437006496073e-02,-3.444478811959036935e-02,-3.432965253334505779e-02,-3.450591128788658979e-02,-3.496913614178880775e-02,-3.568298845563464688e-02,-3.658287817648567947e-02,-3.757975461349766927e-02,-3.856508989662166959e-02,-3.941904109718503274e-02,-4.002242681036159017e-02,-4.027050746164768935e-02,-4.008509509359417522e-02,-3.942248064336559277e-02,-3.827668087799946522e-02,-3.667880955057122028e-02,-3.469361131295406464e-02,-3.241399559307326511e-02,-2.995405044170742354e-02,-2.744020925533327201e-02,-2.499993722584424594e-02,-2.274892307789607923e-02,-2.077977643518224768e-02,-1.915490571088615882e-02,-1.790403034698682602e-02,-1.702511568814057616e-02,-1.648739517466215471e-02,-1.623562920356138445e-02,-1.619492054611162621e-02,-1.627594046741744419e-02,-1.638172971628098357e-02,-1.641744239112720438e-02,-1.630231899485360195e-02,-1.598091558676622420e-02,-1.543054142018524671e-02,-1.466369158616433188e-02,-1.372625529378311386e-02,-1.269305489698584546e-02,-1.166149528206597043e-02,-1.074276980077846534e-02,-1.004994865816347463e-02,-9.683990326453511752e-03,-9.720559659570948349e-03,-1.020055995233165938e-02,-1.112567958690302561e-02,-1.245846007926636190e-02,-1.412553541529491113e-02,-1.602312202228777308e-02,-1.802488605415648176e-02,-1.999289449338207889e-02,-2.179169589881611857e-02,-2.330373424437184871e-02,-2.444278408053249599e-02,-2.516237435364902103e-02,-2.545786960282451702e-02,-2.536282951997562499e-02,-2.494165414992023655e-02,-2.428080584111202977e-02,-2.347997143872997128e-02,-2.264306870299805444e-02,-2.186851626552470049e-02,-2.123938971503786660e-02,-2.081540772895334318e-02,-2.062853729374197753e-02,-2.068286097991228409e-02,-2.095798585685165055e-02,-2.141399667529060927e-02,-2.199586978762681222e-02,-2.263707477869625340e-02,-2.326429117596796187e-02,-2.380524322991734928e-02,-2.419897240209359368e-02,-2.440506418994592419e-02,-2.440859733262559089e-02,-2.422041529642110502e-02,-2.387449555407345630e-02,-2.342419058888613528e-02,-2.293797531119580110e-02,-2.249419262369153211e-02,-2.217373853819218713e-02,-2.205038523307548473e-02,-2.218035982493606756e-02,-2.259419769765015282e-02,-2.329338316502496675e-02,-2.425228804726033138e-02,-2.542376951077067460e-02,-2.674563892047627719e-02,-2.814571508129113872e-02,-2.954519400158896886e-02,-3.086223249615065861e-02,-3.201791947678792050e-02,-3.294475832459656944e-02,-3.359544367280250382e-02,-3.394907167402064913e-02,-3.401309309790494229e-02,-3.382133406961014555e-02,-3.342984012683659217e-02,-3.291207014496184968e-02,-3.235348846880654189e-02,-3.184426408803513187e-02,-3.146899705219883409e-02,-3.129456429383995625e-02,-3.135948800293583694e-02,-3.166831373729863536e-02,-3.219231887209077908e-02,-3.287522561983074326e-02,-3.364107997910409376e-02,-3.440189071227512524e-02,-3.506453562187674539e-02,-3.553804658656158771e-02,-3.574210719826894506e-02,-3.561594665723088332e-02,-3.512590424035007264e-02,-3.427058018168877701e-02,-3.308328458287148471e-02,-3.163142613010335585e-02,-3.001225910527491672e-02,-2.834496087173197718e-02,-2.675991648744950255e-02,-2.538622705647648400e-02,-2.433828253161166716e-02,-2.370298329765831158e-02,-2.352993125390072729e-02,-2.382605604559815196e-02,-2.455452279298237644e-02,-2.563697957027679178e-02,-2.695828723868458690e-02,-2.837335328224329170e-02,-2.971650969303204354e-02,-3.081446737853316825e-02,-3.150306519818045492e-02,-3.164577596716955377e-02,-3.115015100246426583e-02,-2.997878446367803137e-02,-2.815341715035769854e-02,-2.575282501438112825e-02,-2.290619141613158341e-02,-1.978350032754990287e-02,-1.658332557209639402e-02,-1.351729841384344787e-02,-1.079098103333854010e-02,-8.582908622757731004e-03,-7.025382105804688082e-03,-6.190813262531681162e-03,-6.086352657438793244e-03,-6.657631777171321881e-03,-7.799780561381530752e-03,-9.371765862828269553e-03,-1.121076588160042214e-02,-1.314627757357758608e-02,-1.501523685090102450e-02,-1.667780328217458377e-02,-1.803119346374440837e-02,-1.901868156721542996e-02,-1.963223570345700580e-02,-1.990888270594137754e-02,-1.992227227820751387e-02,-1.977164749786808340e-02,-1.956998598730844488e-02,-1.943177973484516013e-02,-1.946030987708750881e-02,-1.973535687568194266e-02,-2.030376206742819101e-02,-2.117515215927436023e-02,-2.232355292435516184e-02,-2.369389961119741997e-02,-2.521120171283273634e-02,-2.678967192861083854e-02,-2.834010606997408935e-02,-2.977573968613811406e-02,-3.101782221135449685e-02,-3.200134683147448644e-02,-3.268019361331560291e-02,-3.303091377002812662e-02,-3.305511618162564752e-02,-3.278082746916889667e-02,-3.226313890034371995e-02,-3.158421787371949729e-02,-3.085204800732623334e-02,-3.019594345060179832e-02,-2.975649947306121396e-02,-2.966977617615806917e-02,-3.004865487700613194e-02,-3.096557277470308664e-02,-3.243992778560146617e-02,-3.443192486284515907e-02,-3.684321629630184225e-02,-3.952328919050845241e-02,-4.227989479831512076e-02,-4.489276939387411985e-02,-4.713099465865856763e-02,-4.877332366371603389e-02,-4.962875188037965679e-02,-4.955421763728286993e-02,-4.846751047368664383e-02,-4.635465032981544303e-02,-4.327166144966303196e-02,-3.934083753969899733e-02,-3.474133162770166178e-02,-2.969388558231888728e-02,-2.444065325115021489e-02,-1.922297298776601965e-02,-1.426081619528289136e-02,-9.736712779844640051e-03,-5.785403387720991324e-03,-2.489204359679019277e-03,1.219966011230158142e-04,2.067724607762466606e-03,3.411715669296482446e-03,4.253823344648833236e-03,4.718174265402906575e-03,4.938756418645282378e-03,5.045353974140112142e-03,5.151883328240975529e-03,5.347429306264549209e-03,5.690174933807978092e-03,6.205059406657560672e-03,6.885527868442408057e-03,7.699042448544816432e-03,8.596232708383536383e-03,9.523117360784932525e-03,1.043378031327879020e-02,1.129982911577143319e-02,1.211476820697891983e-02,1.289374682097376920e-02,1.366977191692175797e-02,1.448757466192060125e-02,1.539713472622069972e-02,1.644910394546595864e-02,1.769254709253943389e-02,1.917319013617422088e-02,2.093059394834036885e-02,2.299449031477342892e-02,2.538101010693112614e-02,2.808888431212277353e-02,3.109574275964499188e-02,3.435506267034590944e-02,3.779406388672258005e-02,4.131267862309416505e-02,4.478462914786692645e-02,4.806234289022344452e-02,5.098625188288521959e-02,5.339688966549188676e-02,5.514726931250839986e-02,5.611380930014814306e-02,5.620548878278167071e-02,5.537209456717427647e-02,5.361321207039236592e-02,5.098918380878931372e-02,4.763239863352121406e-02,4.375344395201195835e-02,3.963559168175486563e-02,3.561413718117877047e-02,3.204195660716150501e-02,2.924651626220972286e-02,2.748550240274505799e-02,2.690863468425375854e-02,2.753227624185977662e-02,2.923116124767978496e-02,3.174878909354739848e-02,3.472559753423464651e-02,3.774158018553667310e-02,4.036757735958886040e-02,4.221819453483573875e-02,4.299950214523854536e-02,4.254529577182245004e-02,4.083635096768878370e-02,3.799892859705850112e-02,3.428258636512551000e-02,3.002166689841028260e-02,2.558760819450016377e-02,2.134020669310648238e-02,1.758526220673813437e-02,1.454339653579037571e-02,1.233148996240020917e-02,1.095606517515791342e-02,1.031749661184687764e-02,1.022395578207162606e-02,1.041351663166351776e-02,1.058236436431021603e-02,1.041719505158375525e-02,9.629819148832695699e-03,7.990717831652512093e-03,5.356500020382917726e-03,1.686019440299163638e-03,-2.957298312719927342e-03,-8.415322933202041070e-03,-1.445348994849404364e-02,-2.078421155200687459e-02,-2.709396946821330393e-02,-3.307364440110309445e-02,-3.845021501535849512e-02,-4.301504691673277425e-02,-4.664309254073050609e-02,-4.929993586395874094e-02,-5.103729412577627522e-02,-5.197959055053891914e-02,-5.230435887766729519e-02,-5.221884689269905289e-02,-5.193506898304572211e-02,-5.164575808715950872e-02,-5.150406278030353335e-02,-5.160994595878716507e-02,-5.200522724636184868e-02,-5.267703736413133914e-02,-5.356735684608356779e-02,-5.458557785618382147e-02,-5.562173177923953465e-02,-5.655923840358709209e-02,-5.728699724420538431e-02,-5.771101432469349229e-02,-5.776515102693556558e-02,-5.741943441017061112e-02,-5.668405413038413165e-02,-5.560791678893257234e-02,-5.427175597419734571e-02,-5.277751144164509467e-02,-5.123737840947526628e-02,-4.976526717140995065e-02,-4.847040562096676525e-02,-4.745113681624654745e-02,-4.678854603475984808e-02,-4.654149550526515133e-02,-4.674405539493052542e-02,-4.740461005949975215e-02,-4.850573723861258124e-02,-5.000517952443046116e-02,-5.183909876439343756e-02,-5.392865039376633363e-02,-5.619014549978779138e-02,-5.854759572250334276e-02,-6.094420470351372826e-02,-6.334826792853619215e-02,-6.575083940794043680e-02,-6.815599666608450347e-02,-7.056714791476971504e-02,-7.297425917267680306e-02,-7.534696502115212358e-02,-7.763599468097323597e-02,-7.978080990981571696e-02,-8.171826286349236079e-02,-8.338770165321289507e-02,-8.473048355015824762e-02,-8.568333373100088524e-02,-8.616494817639501480e-02,-8.605512832852685312e-02,-8.516694702480445689e-02,-8.321558172066056969e-02,-7.979173199147487905e-02,-7.435056440664379596e-02,-6.622577022606401798e-02,-5.467162664861068694e-02,-3.892779755905758504e-02,-1.829715778166723927e-02,7.773227024955218188e-03,3.961649465329933339e-02,7.728324327817383266e-02,1.204982972920919382e-01,1.686420626987890081e-01,2.207588100496754857e-01,2.755909397930311200e-01,3.316353077251235071e-01,3.872158094147294394e-01,4.405664282127740861e-01,4.899208276129656814e-01,5.336072119708031858e-01,5.701478434107337678e-01,5.983584656059252049e-01,6.174364248433672486e-01,6.270238195733062181e-01,0.000000000000000000e+00,0.000000000000000000e+00,0.000000000000000000e+00,0.000000000000000000e+00,0.000000000000000000e+00,0.000000000000000000e+00,0.000000000000000000e+00,0.000000000000000000e+00,0.000000000000000000e+00,0.000000000000000000e+00,0.000000000000000000e+00,0.000000000000000000e+00,0.000000000000000000e+00,0.000000000000000000e+00,0.000000000000000000e+00,0.000000000000000000e+00,0.000000000000000000e+00,0.000000000000000000e+00,0.000000000000000000e+00,0.000000000000000000e+00,0.000000000000000000e+00,0.000000000000000000e+00,0.000000000000000000e+00,0.000000000000000000e+00,0.000000000000000000e+00,0.000000000000000000e+00,0.000000000000000000e+00,0.000000000000000000e+00,0.000000000000000000e+00,0.000000000000000000e+00,0.000000000000000000e+00,0.000000000000000000e+00,0.000000000000000000e+00,0.000000000000000000e+00,0.000000000000000000e+00,0.000000000000000000e+00,0.000000000000000000e+00,0.000000000000000000e+00,0.000000000000000000e+00,0.000000000000000000e+00,0.000000000000000000e+00,0.000000000000000000e+00,0.000000000000000000e+00,0.000000000000000000e+00,0.000000000000000000e+00,0.000000000000000000e+00,0.000000000000000000e+00,0.000000000000000000e+00,0.000000000000000000e+00,0.000000000000000000e+00,0.000000000000000000e+00,0.000000000000000000e+00,0.000000000000000000e+00,0.000000000000000000e+00,0.000000000000000000e+00,0.000000000000000000e+00,0.000000000000000000e+00,0.000000000000000000e+00,0.000000000000000000e+00,0.000000000000000000e+00,0.000000000000000000e+00,0.000000000000000000e+00,0.000000000000000000e+00,0.000000000000000000e+00,0.000000000000000000e+00,0.000000000000000000e+00,0.000000000000000000e+00,0.000000000000000000e+00,0.000000000000000000e+00,0.000000000000000000e+00,0.000000000000000000e+00,0.000000000000000000e+00,0.000000000000000000e+00,0.000000000000000000e+00,0.000000000000000000e+00,0.000000000000000000e+00,0.000000000000000000e+00,0.000000000000000000e+00,0.000000000000000000e+00,0.000000000000000000e+00,0.000000000000000000e+00,0.000000000000000000e+00,0.000000000000000000e+00,0.000000000000000000e+00,0.000000000000000000e+00,0.000000000000000000e+00,0.000000000000000000e+00,0.000000000000000000e+00,0.000000000000000000e+00,0.000000000000000000e+00,0.000000000000000000e+00,0.000000000000000000e+00,0.000000000000000000e+00,0.000000000000000000e+00,0.000000000000000000e+00,0.000000000000000000e+00,0.000000000000000000e+00,0.000000000000000000e+00,0.000000000000000000e+00,0.000000000000000000e+00,0.000000000000000000e+00,0.000000000000000000e+00,0.000000000000000000e+00,0.000000000000000000e+00,0.000000000000000000e+00,0.000000000000000000e+00,0.000000000000000000e+00,0.000000000000000000e+00,0.000000000000000000e+00,0.000000000000000000e+00,0.000000000000000000e+00,0.000000000000000000e+00,0.000000000000000000e+00,0.000000000000000000e+00,0.000000000000000000e+00,0.000000000000000000e+00,0.000000000000000000e+00,0.000000000000000000e+00,0.000000000000000000e+00,0.000000000000000000e+00,0.000000000000000000e+00,0.000000000000000000e+00,0.000000000000000000e+00,0.000000000000000000e+00,0.000000000000000000e+00,0.000000000000000000e+00,0.000000000000000000e+00,0.000000000000000000e+00,0.000000000000000000e+00,0.000000000000000000e+00,0.000000000000000000e+00,0.000000000000000000e+00,0.000000000000000000e+00,0.000000000000000000e+00,0.000000000000000000e+00,0.000000000000000000e+00,0.000000000000000000e+00,0.000000000000000000e+00,0.000000000000000000e+00,0.000000000000000000e+00,0.000000000000000000e+00,0.000000000000000000e+00,0.000000000000000000e+00,0.000000000000000000e+00,0.000000000000000000e+00,0.000000000000000000e+00,0.000000000000000000e+00,0.000000000000000000e+00,0.000000000000000000e+00,0.000000000000000000e+00,0.000000000000000000e+00,0.000000000000000000e+00,0.000000000000000000e+00,0.000000000000000000e+00,0.000000000000000000e+00,0.000000000000000000e+00,0.000000000000000000e+00,0.000000000000000000e+00,0.000000000000000000e+00,0.000000000000000000e+00,0.000000000000000000e+00,0.000000000000000000e+00,0.000000000000000000e+00,0.000000000000000000e+00,0.000000000000000000e+00,0.000000000000000000e+00,0.000000000000000000e+00,0.000000000000000000e+00,0.000000000000000000e+00,0.000000000000000000e+00,0.000000000000000000e+00,0.000000000000000000e+00,0.000000000000000000e+00,0.000000000000000000e+00,0.000000000000000000e+00,0.000000000000000000e+00,0.000000000000000000e+00,0.000000000000000000e+00,0.000000000000000000e+00,0.000000000000000000e+00,0.000000000000000000e+00,0.000000000000000000e+00,0.000000000000000000e+00,0.000000000000000000e+00,0.000000000000000000e+00,0.000000000000000000e+00,0.000000000000000000e+00,0.000000000000000000e+00,0.000000000000000000e+00,0.000000000000000000e+00,0.000000000000000000e+00,0.000000000000000000e+00,0.000000000000000000e+00,0.000000000000000000e+00,0.000000000000000000e+00,0.000000000000000000e+00,0.000000000000000000e+00,0.000000000000000000e+00,0.000000000000000000e+00,0.000000000000000000e+00,0.000000000000000000e+00,0.000000000000000000e+00,0.000000000000000000e+00,0.000000000000000000e+00,0.000000000000000000e+00,0.000000000000000000e+00,0.000000000000000000e+00,0.000000000000000000e+00,0.000000000000000000e+00,0.000000000000000000e+00,0.000000000000000000e+00,0.000000000000000000e+00,0.000000000000000000e+00,0.000000000000000000e+00,0.000000000000000000e+00,0.000000000000000000e+00,0.000000000000000000e+00,0.000000000000000000e+00,0.000000000000000000e+00,0.000000000000000000e+00,0.000000000000000000e+00,0.000000000000000000e+00,0.000000000000000000e+00,0.000000000000000000e+00,0.000000000000000000e+00,0.000000000000000000e+00,0.000000000000000000e+00,0.000000000000000000e+00,0.000000000000000000e+00,0.000000000000000000e+00,0.000000000000000000e+00,0.000000000000000000e+00,0.000000000000000000e+00,0.000000000000000000e+00,0.000000000000000000e+00,0.000000000000000000e+00,0.000000000000000000e+00,0.000000000000000000e+00,0.000000000000000000e+00,0.000000000000000000e+00,0.000000000000000000e+00,0.000000000000000000e+00,0.000000000000000000e+00,0.000000000000000000e+00,0.000000000000000000e+00,0.000000000000000000e+00,0.000000000000000000e+00,0.000000000000000000e+00,0.000000000000000000e+00,0.000000000000000000e+00,0.000000000000000000e+00,0.000000000000000000e+00,0.000000000000000000e+00,0.000000000000000000e+00,0.000000000000000000e+00,0.000000000000000000e+00,0.000000000000000000e+00,0.000000000000000000e+00,0.000000000000000000e+00,0.000000000000000000e+00,0.000000000000000000e+00,0.000000000000000000e+00,0.000000000000000000e+00,0.000000000000000000e+00,0.000000000000000000e+00,0.000000000000000000e+00,0.000000000000000000e+00,0.000000000000000000e+00,0.000000000000000000e+00,0.000000000000000000e+00,0.000000000000000000e+00,0.000000000000000000e+00,0.000000000000000000e+00,0.000000000000000000e+00,0.000000000000000000e+00,0.000000000000000000e+00,0.000000000000000000e+00,0.000000000000000000e+00,0.000000000000000000e+00,0.000000000000000000e+00,0.000000000000000000e+00,0.000000000000000000e+00,0.000000000000000000e+00,0.000000000000000000e+00,0.000000000000000000e+00,0.000000000000000000e+00,0.000000000000000000e+00,0.000000000000000000e+00,0.000000000000000000e+00,0.000000000000000000e+00,0.000000000000000000e+00,0.000000000000000000e+00,0.000000000000000000e+00,0.000000000000000000e+00,0.000000000000000000e+00,0.000000000000000000e+00,0.000000000000000000e+00,0.000000000000000000e+00,0.000000000000000000e+00,0.000000000000000000e+00,0.000000000000000000e+00,0.000000000000000000e+00,0.000000000000000000e+00,0.000000000000000000e+00,0.000000000000000000e+00,0.000000000000000000e+00,0.000000000000000000e+00,0.000000000000000000e+00,0.000000000000000000e+00,0.000000000000000000e+00,0.000000000000000000e+00,0.000000000000000000e+00,0.000000000000000000e+00,0.000000000000000000e+00,0.000000000000000000e+00,0.000000000000000000e+00,0.000000000000000000e+00,0.000000000000000000e+00,0.000000000000000000e+00,0.000000000000000000e+00,0.000000000000000000e+00,0.000000000000000000e+00,0.000000000000000000e+00,0.000000000000000000e+00,0.000000000000000000e+00,0.000000000000000000e+00,0.000000000000000000e+00,0.000000000000000000e+00,0.000000000000000000e+00,0.000000000000000000e+00,0.000000000000000000e+00,0.000000000000000000e+00,0.000000000000000000e+00,0.000000000000000000e+00,0.000000000000000000e+00,0.000000000000000000e+00,0.000000000000000000e+00,0.000000000000000000e+00,0.000000000000000000e+00,0.000000000000000000e+00,0.000000000000000000e+00,0.000000000000000000e+00,0.000000000000000000e+00,0.000000000000000000e+00,0.000000000000000000e+00,0.000000000000000000e+00,0.000000000000000000e+00,0.000000000000000000e+00,0.000000000000000000e+00,0.000000000000000000e+00,0.000000000000000000e+00,0.000000000000000000e+00,0.000000000000000000e+00,0.000000000000000000e+00,0.000000000000000000e+00,0.000000000000000000e+00,0.000000000000000000e+00,0.000000000000000000e+00,0.000000000000000000e+00,0.000000000000000000e+00,0.000000000000000000e+00,0.000000000000000000e+00,0.000000000000000000e+00,0.000000000000000000e+00,0.000000000000000000e+00,0.000000000000000000e+00,0.000000000000000000e+00,0.000000000000000000e+00,0.000000000000000000e+00,0.000000000000000000e+00,0.000000000000000000e+00,0.000000000000000000e+00,0.000000000000000000e+00,0.000000000000000000e+00,0.000000000000000000e+00,0.000000000000000000e+00,0.000000000000000000e+00,0.000000000000000000e+00,0.000000000000000000e+00,0.000000000000000000e+00,0.000000000000000000e+00,0.000000000000000000e+00,0.000000000000000000e+00,0.000000000000000000e+00,0.000000000000000000e+00,0.000000000000000000e+00,0.000000000000000000e+00,0.000000000000000000e+00,0.000000000000000000e+00,0.000000000000000000e+00,0.000000000000000000e+00,0.000000000000000000e+00,0.000000000000000000e+00,0.000000000000000000e+00,0.000000000000000000e+00,0.000000000000000000e+00,0.000000000000000000e+00,0.000000000000000000e+00,0.000000000000000000e+00,0.000000000000000000e+00,0.000000000000000000e+00,0.000000000000000000e+00,0.000000000000000000e+00,0.000000000000000000e+00,0.000000000000000000e+00,0.000000000000000000e+00,0.000000000000000000e+00,0.000000000000000000e+00,0.000000000000000000e+00,0.000000000000000000e+00,0.000000000000000000e+00,0.000000000000000000e+00,0.000000000000000000e+00,0.000000000000000000e+00,0.000000000000000000e+00,0.000000000000000000e+00,0.000000000000000000e+00,0.000000000000000000e+00,0.000000000000000000e+00,0.000000000000000000e+00,0.000000000000000000e+00,0.000000000000000000e+00,0.000000000000000000e+00,0.000000000000000000e+00,0.000000000000000000e+00,0.000000000000000000e+00,0.000000000000000000e+00,0.000000000000000000e+00,0.000000000000000000e+00,0.000000000000000000e+00,0.000000000000000000e+00,0.000000000000000000e+00,0.000000000000000000e+00,0.000000000000000000e+00,0.000000000000000000e+00,0.000000000000000000e+00,0.000000000000000000e+00,0.000000000000000000e+00,0.000000000000000000e+00,0.000000000000000000e+00,0.000000000000000000e+00,0.000000000000000000e+00,0.000000000000000000e+00,0.000000000000000000e+00,0.000000000000000000e+00,0.000000000000000000e+00,0.000000000000000000e+00,0.000000000000000000e+00,0.000000000000000000e+00,0.000000000000000000e+00,0.000000000000000000e+00,0.000000000000000000e+00,0.000000000000000000e+00,0.000000000000000000e+00,0.000000000000000000e+00,0.000000000000000000e+00,0.000000000000000000e+00,0.000000000000000000e+00,0.000000000000000000e+00,0.000000000000000000e+00,0.000000000000000000e+00,0.000000000000000000e+00,0.000000000000000000e+00,0.000000000000000000e+00,0.000000000000000000e+00,0.000000000000000000e+00,0.000000000000000000e+00,0.000000000000000000e+00,0.000000000000000000e+00,0.000000000000000000e+00,0.000000000000000000e+00,0.000000000000000000e+00,0.000000000000000000e+00,0.000000000000000000e+00,0.000000000000000000e+00,0.000000000000000000e+00,0.000000000000000000e+00,0.000000000000000000e+00,0.000000000000000000e+00,0.000000000000000000e+00,0.000000000000000000e+00,0.000000000000000000e+00,0.000000000000000000e+00,0.000000000000000000e+00,0.000000000000000000e+00,0.000000000000000000e+00,0.000000000000000000e+00,0.000000000000000000e+00,0.000000000000000000e+00,0.000000000000000000e+00,0.000000000000000000e+00,0.000000000000000000e+00,0.000000000000000000e+00,0.000000000000000000e+00,0.000000000000000000e+00,0.000000000000000000e+00,0.000000000000000000e+00,0.000000000000000000e+00,0.000000000000000000e+00,0.000000000000000000e+00,0.000000000000000000e+00,0.000000000000000000e+00,0.000000000000000000e+00,0.000000000000000000e+00,0.000000000000000000e+00,0.000000000000000000e+00,0.000000000000000000e+00,0.000000000000000000e+00,0.000000000000000000e+00,0.000000000000000000e+00,0.000000000000000000e+00,0.000000000000000000e+00,0.000000000000000000e+00,0.000000000000000000e+00,0.000000000000000000e+00,0.000000000000000000e+00,0.000000000000000000e+00,0.000000000000000000e+00,0.000000000000000000e+00,0.000000000000000000e+00,0.000000000000000000e+00,0.000000000000000000e+00,0.000000000000000000e+00,0.000000000000000000e+00,0.000000000000000000e+00,0.000000000000000000e+00,0.000000000000000000e+00,0.000000000000000000e+00,0.000000000000000000e+00,0.000000000000000000e+00,0.000000000000000000e+00,0.000000000000000000e+00,0.000000000000000000e+00,0.000000000000000000e+00,0.000000000000000000e+00,0.000000000000000000e+00,0.000000000000000000e+00,0.000000000000000000e+00,0.000000000000000000e+00,0.000000000000000000e+00,0.000000000000000000e+00,0.000000000000000000e+00,0.000000000000000000e+00,0.000000000000000000e+00,0.000000000000000000e+00,0.000000000000000000e+00,0.000000000000000000e+00,0.000000000000000000e+00,0.000000000000000000e+00,0.000000000000000000e+00,0.000000000000000000e+00,0.000000000000000000e+00,0.000000000000000000e+00,0.000000000000000000e+00,0.000000000000000000e+00,0.000000000000000000e+00,0.000000000000000000e+00,0.000000000000000000e+00,0.000000000000000000e+00,0.000000000000000000e+00,0.000000000000000000e+00,0.000000000000000000e+00,0.000000000000000000e+00,0.000000000000000000e+00,0.000000000000000000e+00,0.000000000000000000e+00,0.000000000000000000e+00,0.000000000000000000e+00,0.000000000000000000e+00,0.000000000000000000e+00,0.000000000000000000e+00,0.000000000000000000e+00,0.000000000000000000e+00,0.000000000000000000e+00,0.000000000000000000e+00,0.000000000000000000e+00,0.000000000000000000e+00,0.000000000000000000e+00,0.000000000000000000e+00,0.000000000000000000e+00,0.000000000000000000e+00,0.000000000000000000e+00,0.000000000000000000e+00,0.000000000000000000e+00,0.000000000000000000e+00,0.000000000000000000e+00,0.000000000000000000e+00,0.000000000000000000e+00,0.000000000000000000e+00,0.000000000000000000e+00,0.000000000000000000e+00,0.000000000000000000e+00,0.000000000000000000e+00,0.000000000000000000e+00,0.000000000000000000e+00,0.000000000000000000e+00,0.000000000000000000e+00,0.000000000000000000e+00,0.000000000000000000e+00,0.000000000000000000e+00,0.000000000000000000e+00,0.000000000000000000e+00,0.000000000000000000e+00,0.000000000000000000e+00,0.000000000000000000e+00,0.000000000000000000e+00,0.000000000000000000e+00,0.000000000000000000e+00,0.000000000000000000e+00,0.000000000000000000e+00,0.000000000000000000e+00,0.000000000000000000e+00,0.000000000000000000e+00,0.000000000000000000e+00,0.000000000000000000e+00,0.000000000000000000e+00,0.000000000000000000e+00,0.000000000000000000e+00,0.000000000000000000e+00,0.000000000000000000e+00,0.000000000000000000e+00,0.000000000000000000e+00,0.000000000000000000e+00,0.000000000000000000e+00,0.000000000000000000e+00,0.000000000000000000e+00,0.000000000000000000e+00,0.000000000000000000e+00,0.000000000000000000e+00,0.000000000000000000e+00,0.000000000000000000e+00,0.000000000000000000e+00,0.000000000000000000e+00,0.000000000000000000e+00,0.000000000000000000e+00,0.000000000000000000e+00,0.000000000000000000e+00,0.000000000000000000e+00,0.000000000000000000e+00,0.000000000000000000e+00,0.000000000000000000e+00,0.000000000000000000e+00,0.000000000000000000e+00,0.000000000000000000e+00,0.000000000000000000e+00,0.000000000000000000e+00,0.000000000000000000e+00,0.000000000000000000e+00,0.000000000000000000e+00,0.000000000000000000e+00,0.000000000000000000e+00,0.000000000000000000e+00,0.000000000000000000e+00,0.000000000000000000e+00,0.000000000000000000e+00,0.000000000000000000e+00,0.000000000000000000e+00,0.000000000000000000e+00,0.000000000000000000e+00,0.000000000000000000e+00,0.000000000000000000e+00,0.000000000000000000e+00,0.000000000000000000e+00,0.000000000000000000e+00,0.000000000000000000e+00,0.000000000000000000e+00,0.000000000000000000e+00,0.000000000000000000e+00,0.000000000000000000e+00,0.000000000000000000e+00,0.000000000000000000e+00,0.000000000000000000e+00,0.000000000000000000e+00,0.000000000000000000e+00,0.000000000000000000e+00,0.000000000000000000e+00,0.000000000000000000e+00,0.000000000000000000e+00,0.000000000000000000e+00,0.000000000000000000e+00,0.000000000000000000e+00,0.000000000000000000e+00,0.000000000000000000e+00,0.000000000000000000e+00,0.000000000000000000e+00,0.000000000000000000e+00,0.000000000000000000e+00,0.000000000000000000e+00,0.000000000000000000e+00,0.000000000000000000e+00,0.000000000000000000e+00,0.000000000000000000e+00,0.000000000000000000e+00,0.000000000000000000e+00,0.000000000000000000e+00,0.000000000000000000e+00,0.000000000000000000e+00,0.000000000000000000e+00,0.000000000000000000e+00,0.000000000000000000e+00,0.000000000000000000e+00,0.000000000000000000e+00,0.000000000000000000e+00,0.000000000000000000e+00,0.000000000000000000e+00,0.000000000000000000e+00,0.000000000000000000e+00,0.000000000000000000e+00,0.000000000000000000e+00,0.000000000000000000e+00,0.000000000000000000e+00,0.000000000000000000e+00,0.000000000000000000e+00,0.000000000000000000e+00,0.000000000000000000e+00,0.000000000000000000e+00,0.000000000000000000e+00,0.000000000000000000e+00,0.000000000000000000e+00,0.000000000000000000e+00,0.000000000000000000e+00
6.272347201608837741e-01,6.186398127584323836e-01,6.022071574151383055e-01,5.792051593328482184e-01,5.510811772263249919e-01,5.193336322531281191e-01,4.853955627118046179e-01,4.505414765291248513e-01,4.158196345708907171e-01,3.820081031255693205e-01,3.495978947380273261e-01,3.188090805848645126e-01,2.896385251577237585e-01,2.619284375147061805e-01,2.354418026378278794e-01,2.099333488933342595e-01,1.852086641399239009e-01,1.611666643010671862e-01,1.378218650556198022e-01,1.153042942777786073e-01,9.383709271269147223e-02,7.369532832394971866e-02,5.515453317098404501e-02,3.844089646821826495e-02,2.369286769087656716e-02,1.093834349174715483e-02,8.848261669341708747e-05,-9.051213768694093414e-03,-1.675348017707838436e-02,-2.332995798630249293e-02,-2.908782991597096829e-02,-3.429176416505478470e-02,-3.913852767097172197e-02,-4.374664179068235570e-02,-4.815882121096759505e-02,-5.235310302582907305e-02,-5.625872562694964052e-02,-5.977369423833508999e-02,-6.278240442964878876e-02,-6.517300223290668770e-02,-6.685402544620207277e-02,-6.776834981102199118e-02,-6.790155746832018946e-02,-6.728309065048457271e-02,-6.598117811921817844e-02,-6.409465266881324286e-02,-6.174499983794039248e-02,-5.907026482202074741e-02,-5.622035751315017371e-02,-5.335213158529286681e-02,-5.062241088934919808e-02,-4.817798907872457292e-02,-4.614348461170283272e-02,-4.460950327315441055e-02,-4.362359906351995220e-02,-4.318526304846301983e-02,-4.324486981749881692e-02,-4.370635208766740498e-02,-4.443428402543943972e-02,-4.526652119989262035e-02,-4.603219708637915769e-02,-4.657236999438234964e-02,-4.675928158268098656e-02,-4.651108422090603767e-02,-4.580049521142073171e-02,-4.465668114479456191e-02,-4.316031216687701844e-02,-4.143276876394502012e-02,-3.962098085832997663e-02,-3.787887513054635780e-02,-3.634658820265343482e-02,-3.513057537747323739e-02,-3.428941458587911328e-02,-3.382888965867900805e-02,-3.370649801691968928e-02,-3.384255598054515535e-02,-3.413399883316663164e-02,-3.446760160106729365e-02,-3.473115313887126243e-02,-3.482300586210951981e-02,-3.466051832946877298e-02,-3.418605865753158307e-02,-3.336844040149152674e-02,-3.219989250888493498e-02,-3.069152357365213107e-02,-2.887064500572564599e-02,-2.678131643986704849e-02,-2.448694911194368787e-02,-2.207219185306711143e-02,-1.964116129758430862e-02,-1.731052275597262657e-02,-1.519844828642519761e-02,-1.341229238746908040e-02,-1.203780353984806352e-02,-1.113164141811981943e-02,-1.071773815824994709e-02,-1.078678726401510225e-02,-1.129752344421699334e-02,-1.217921765472359738e-02,-1.333634006911031157e-02,-1.465661164539286410e-02,-1.602173864344605750e-02,-1.731827296534046989e-02,-1.844659974234613004e-02,-1.932781064580493119e-02,-1.990904684485503284e-02,-2.016781853270045721e-02,-2.011552312253311534e-02,-1.979956091632317436e-02,-1.930178426624768948e-02,-1.873021778202796708e-02,-1.820342036503626998e-02,-1.783126923728395319e-02,-1.769798290542901054e-02,-1.785115980425668047e-02,-1.829714023250698929e-02,-1.900108543590911525e-02,-1.989027998253784651e-02,-2.086029282152023281e-02,-2.178485917868309626e-02,-2.253055215685534005e-02,-2.297542406829462119e-02,-2.302797221647591083e-02,-2.264188516355902445e-02,-2.182370826146020834e-02,-2.063295453761864254e-02,-1.917594451543036191e-02,-1.759544237197387118e-02,-1.605768818120388575e-02,-1.473717427387033312e-02,-1.379898795768111884e-02,-1.337971701856702569e-02,-1.356980053264804364e-02,-1.440094357171280669e-02,-1.584118356020377399e-02,-1.779807668338983379e-02,-2.012822888165568397e-02,-2.265021812196801182e-02,-2.515879881655038938e-02,-2.744049318859494505e-02,-2.929178981595599585e-02,-3.053932468625629448e-02,-3.105837158921627081e-02,-3.078542731082200765e-02,-2.972314118663120161e-02,-2.793841835686138378e-02,-2.555544058521706449e-02,-2.274519250100871456e-02,-1.971262570808832160e-02,-1.668186330416449731e-02,-1.387916470654139076e-02,-1.151360904708148558e-02,-9.756652325926319994e-03,-8.723008759369009490e-03,-8.456319363147836790e-03,-8.923351773343406179e-03,-1.001879944439693082e-02,-1.157920485396591453e-02,-1.340178477641773037e-02,-1.526443427245371964e-02,-1.694576147484771686e-02,-1.824502033100458553e-02,-1.900025902155823287e-02,-1.910186694480145095e-02,-1.849984900863426221e-02,-1.720489460381324776e-02,-1.528421282914967962e-02,-1.285364554446086216e-02,-1.006764062388775839e-02,-7.107644496666619925e-03,-4.168349173816221845e-03,-1.441553607051081643e-03,9.010503000371032634e-04,2.723563243877663749e-03,3.937460578073323850e-03,4.507797794768285925e-03,4.454400078366564826e-03,3.849280281985472361e-03,2.810918716097503267e-03,1.494304692379873822e-03,7.507586338955507662e-05,-1.271343133772257676e-03,-2.390943150419143695e-03,-3.167137784525064260e-03,-3.528836110249029996e-03,-3.451380442035187953e-03,-2.952937112644681440e-03,-2.088749106058432423e-03,-9.444010033109472057e-04,3.722426596247079954e-04,1.741580519142995904e-03,3.045472584527560925e-03,4.180927585549610616e-03,5.071025855031293869e-03,5.671243518570693622e-03,5.971336829434722993e-03,5.993629165392308673e-03,5.788408926741356493e-03,5.427116048865769128e-03,4.993785372282977600e-03,4.574927180514223694e-03,4.248755834802602806e-03,4.076217958264570160e-03,4.096573457352831876e-03,4.328238705040686300e-03,4.772850732860127107e-03,5.419518011767627576e-03,6.247391276245421211e-03,7.226643137017148971e-03,8.319512831595076915e-03,9.483327013227158681e-03,1.067576737833631113e-02,1.186053505745095563e-02,1.301130775169470448e-02,1.411351551884260265e-02,1.516503977833851859e-02,1.617715230085461225e-02,1.717583616661179716e-02,1.820207509747383962e-02,1.930901555541933087e-02,2.055472352217848145e-02,2.199141894336296629e-02,2.365424252736849850e-02,2.555300726536448297e-02,2.766880205430997594e-02,2.995522697018181829e-02,3.234288069751058842e-02,3.474564377318399566e-02,3.706763736284000160e-02,3.921024099059863127e-02,4.107919080766608833e-02,4.259192350149097750e-02,4.368462751184701287e-02,4.431783435657925263e-02,4.447984535845199427e-02,4.418840416991706710e-02,4.349148692609683398e-02,4.246738501334994254e-02,4.122308502059158358e-02,3.988912096388994716e-02,3.860920425098464392e-02,3.752468216200024326e-02,3.675664315454291869e-02,3.639025064343884980e-02,3.646538474388651141e-02,3.697518596984162437e-02,3.787098412509894152e-02,3.907035940984249223e-02,4.046574537947161820e-02,4.193310516327207471e-02,4.334175227258598578e-02,4.456588725293657294e-02,4.549667118584363457e-02,4.605268835979726277e-02,4.618714208431577012e-02,4.589147557872058636e-02,4.519638726693318148e-02,4.417128895252497162e-02,4.292190303488997022e-02,4.158412817870602712e-02,4.031213266669673306e-02,3.926059178065548216e-02,3.856394742519657359e-02,3.831741514577707147e-02,3.856411436500421092e-02,3.929044046442047022e-02,4.042891894779889611e-02,4.186608153018851058e-02,4.345312228020448142e-02,4.501836332504571825e-02,4.638149125698544373e-02,4.736925549344940534e-02,4.783135660110220816e-02,4.765490099448504296e-02,4.677616385239037611e-02,4.518851587570282130e-02,4.294519783096614057e-02,4.015602392728962605e-02,3.697816128669118713e-02,3.360197173526447562e-02,3.023304638198371849e-02,2.707181091536303014e-02,2.429315553373404338e-02,2.202968981705021381e-02,2.036195076312838359e-02,1.931666181767400028e-02,1.887123622193519548e-02,1.896133208448699120e-02,1.948927364073493873e-02,2.033336678160867217e-02,2.135953788898494951e-02,2.243587103061776139e-02,2.344811699212137959e-02,2.431255308700817561e-02,2.498314538795547504e-02,2.545212616404345096e-02,2.574551768169308641e-02,2.591649004430839759e-02,2.603873589010985770e-02,2.619966214110744721e-02,2.649132370908969733e-02,2.699797290797743138e-02,2.778209032491877478e-02,2.887234553291357503e-02,3.025599291073842803e-02,3.187678150833773982e-02,3.363859662419104585e-02,3.541421177893917804e-02,3.705794043107638741e-02,3.842128175874453405e-02,3.937092722795070693e-02,3.980706192564732043e-02,3.967777367537771854e-02,3.898577812218386590e-02,3.778679911540206576e-02,3.618149210713140357e-02,3.430311002578935453e-02,3.230273728617762130e-02,3.033404342776926596e-02,2.853938237300863642e-02,2.703829548929590973e-02,2.591895780665922841e-02,2.523291248035801695e-02,2.499295648448090004e-02,2.517400309664183378e-02,2.571748536238608815e-02,2.653961805086319306e-02,2.754198504483244825e-02,2.862167340979578783e-02,2.967924177434872607e-02,3.062486955158658444e-02,3.138360250114769628e-02,3.189948746248424255e-02,3.213753485363528284e-02,3.208296391211033077e-02,3.173851456533158255e-02,3.112165542631066192e-02,3.026339322409434332e-02,2.920900835914274837e-02,2.801914002328965286e-02,2.676850229849094334e-02,2.554037521065324196e-02,2.441739983382637189e-02,2.347102471684073613e-02,2.275218009738266822e-02,2.228478716782572241e-02,2.206219119911865048e-02,2.204585234054214776e-02,2.216641892170821346e-02,2.232837323986704495e-02,2.241929665803415669e-02,2.232336402013036097e-02,2.193689869423099542e-02,2.118305474793557089e-02,2.002330824150812955e-02,1.846447023608257729e-02,1.656077354956970310e-02,1.441124713253471613e-02,1.215259974039304726e-02,9.947133564517688167e-03,7.965467977344990042e-03,6.366106603578151717e-03,5.275826372301414477e-03,4.774116399383972198e-03,4.883044464362915754e-03,5.563286550230865830e-03,6.716692114605802948e-03,8.194505287863531121e-03,9.809569216243013701e-03,1.135169971489317919e-02,1.260652383805556213e-02,1.337723043271263519e-02,1.350628925423890368e-02,1.289302152179639879e-02,1.150409977141778582e-02,9.376109292040517296e-03,6.610747445474084855e-03,3.364024362011728934e-03,-1.688359159350494776e-04,-3.771429740613972681e-03,-7.226133152493199527e-03,-1.033418230922812479e-02,-1.293303715960054251e-02,-1.490876924276440980e-02,-1.620285453220987257e-02,-1.681382689923809418e-02,-1.679465205300375436e-02,-1.624670743112009014e-02,-1.531073625751006896e-02,-1.415446285393181028e-02,-1.295662029499245783e-02,-1.188844562070249383e-02,-1.109534450985747572e-02,-1.068177504998675531e-02,-1.070141772501029438e-02,-1.115358688804781763e-02,-1.198577688102918717e-02,-1.310104480687996828e-02,-1.436842501973677536e-02,-1.563546940394627133e-02,-1.674333916098160596e-02,-1.754455798784532172e-02,-1.792134111454747256e-02,-1.780078320559725855e-02,-1.716380421899869196e-02,-1.604667330477844989e-02,-1.453575849241950033e-02,-1.275733315844271125e-02,-1.086431557690156757e-02,-9.020776554452741847e-03,-7.384463672865932207e-03,-6.088740800091032093e-03,-5.227213766464415892e-03,-4.844744672740853263e-03,-4.936618692078756539e-03,-5.454461904909314873e-03,-6.315210174002186712e-03,-7.409378778366424584e-03,-8.607316096554682924e-03,-9.765635945619671049e-03,-1.073734342674783834e-02,-1.138651215671298948e-02,-1.160447347981793075e-02,-1.132332733085923346e-02,-1.052454701681023938e-02,-9.242777283802516841e-03,-7.565500396418312415e-03,-5.628450307021985212e-03,-3.606042203017498487e-03,-1.696298490356768158e-03,-1.007223781068520234e-04,9.987428460872982590e-04,1.461993897760408955e-03,1.208546838220058263e-03,2.283372621864982670e-04,-1.415692688305859870e-03,-3.593576279679953044e-03,-6.121940644883291059e-03,-8.782953657855427712e-03,-1.134624770077125207e-02,-1.359244350503701661e-02,-1.533687902824778376e-02,-1.645085181380554623e-02,-1.687691571747069672e-02,-1.663541629847246558e-02,-1.582078420119022860e-02,-1.458760729843991931e-02,-1.312832481741447316e-02,-1.164626360832676094e-02,-1.032881030059719547e-02,-9.325394084172761514e-03,-8.733646960253999003e-03,-8.594726093110368823e-03,-8.896497618903478552e-03,-9.582407060909360272e-03,-1.056382072785245693e-02,-1.173335905006322143e-02,-1.297679011372378059e-02,-1.418208489112881242e-02,-1.524577717592100548e-02,-1.607792015466371835e-02,-1.660684253926054260e-02,-1.678382548584063730e-02,-1.658720634002199337e-02,-1.602546562280918532e-02,-1.513848456529625318e-02,-1.399577024605269844e-02,-1.269134794151068578e-02,-1.133656258814919222e-02,-1.005206981875100131e-02,-8.958779250298200617e-03,-8.167091306206707146e-03,-7.765464055772864325e-03,-7.810675427750954011e-03,-8.321368211501738860e-03,-9.275116928385869833e-03,-1.060895018889659869e-02,-1.222332908256676398e-02,-1.398919012126717022e-02,-1.575757078185179710e-02,-1.737194527131280183e-02,-1.868314866271660740e-02,-1.956490848577558186e-02,-1.992687811205716766e-02,-1.972348636431396629e-02,-1.895891231025468443e-02,-1.768862553430933932e-02,-1.601687785349401039e-02,-1.408911032408611749e-02,-1.207854979927025334e-02,-1.016708599296730665e-02,-8.522623149205085791e-03,-7.277579679414030410e-03,-6.513353630592041629e-03,-6.253167815174656523e-03,-6.463123302063906311e-03,-7.059824950962402708e-03,-7.922482462405566750e-03,-8.907694964922847208e-03,-9.865690513928423999e-03,-1.065692380805993537e-02,-1.116746622584362768e-02,-1.132116504460079810e-02,-1.108695384659239003e-02,-1.048092399442508878e-02,-9.563885388653249608e-03,-8.435614576134576811e-03,-7.226870871903225656e-03,-6.089627047131930537e-03,-5.185035060700425753e-03,-4.668338848843518220e-03,-4.671404130688202108e-03,-5.285948482026096504e-03,-6.551110940893261486e-03,-8.446909529900934605e-03,-1.089295781129293213e-02,-1.375163049510532733e-02,-1.683583738250705661e-02,-1.992205819819544213e-02,-2.276914275796719858e-02,-2.514255637977715063e-02,-2.684158520581525834e-02,-2.772457136218447679e-02,-2.772698861050921018e-02,-2.686940229054403384e-02,-2.525512407720377495e-02,-2.305915615044482059e-02,-2.051058718019588972e-02,-1.787051329924433177e-02,-1.540736502129718549e-02,-1.337138660301227973e-02,-1.197041246396132047e-02,-1.135001261566526663e-02,-1.158102908610184577e-02,-1.265580779626685956e-02,-1.449241915138885055e-02,-1.694491604050164801e-02,-1.981716045862258122e-02,-2.287815604247311896e-02,-2.587831546682826944e-02,-2.856750744399524228e-02,-3.071524560015253050e-02,-3.213109849783574168e-02,-3.268177319186309909e-02,-3.230200802109903929e-02,-3.099844825681827981e-02,-2.884737915716584916e-02,-2.598782530655317433e-02,-2.261115321725516367e-02,-1.894740944648762304e-02,-1.524810509947489325e-02,-1.176594604474605690e-02,-8.733668466417026516e-03,-6.344980099166176203e-03,-4.739970975042249665e-03,-3.996031716668619997e-03,-4.124070405556058867e-03,-5.069130624876790753e-03,-6.714621059938043722e-03,-8.890202885727090457e-03,-1.138452382540062514e-02,-1.396391951196467897e-02,-1.639574047762689876e-02,-1.847202381759195655e-02,-2.002872896335903402e-02,-2.095771600101055746e-02,-2.121114881324385332e-02,-2.079965821909198626e-02,-1.978592082043811873e-02,-1.827468260648287823e-02,-1.639966648964213264e-02,-1.430819110635670605e-02,-1.214552209858329665e-02,-1.004141443210748025e-02,-8.100349427859173182e-03,-6.395830859936307844e-03,-4.968524959327588926e-03,-3.827768911607984468e-03,-2.955961660473332281e-03,-2.315456802099369153e-03,-1.857229761892336718e-03,-1.529590273358363015e-03,-1.284665423871745368e-03,-1.081483243953401804e-03,-8.864965438923360806e-04,-6.737765873631066738e-04,-4.273087426194945937e-04,-1.463382954717867748e-04,1.484682505971453997e-04,4.128388598537526596e-04,5.845257661453973595e-04,5.962915903489153556e-04,3.915155195770566665e-04,-6.335873082201278232e-05,-7.729134818052473552e-04,-1.713176543563054224e-03,-2.835682834931797271e-03,-4.072321127112311402e-03,-5.339872784551238927e-03,-6.545262992281958465e-03,-7.593522070952250271e-03,-8.399347585157026716e-03,-8.900433688346800695e-03,-9.068844042651647355e-03,-8.917169695227449358e-03,-8.498004509948782828e-03,-7.897285783911224544e-03,-7.223744484437428365e-03,-6.596968749812205310e-03,-6.135084451292347092e-03,-5.941593977829685500e-03,-6.091430285290146650e-03,-6.618394065958621043e-03,-7.507757133478397925e-03,-8.697221447778076542e-03,-1.008630647427574516e-02,-1.155040182488220601e-02,-1.295433510552054628e-02,-1.416267790153289893e-02,-1.504806728934533593e-02,-1.550104599775117484e-02,-1.544335435485754554e-02,-1.484278858400011301e-02,-1.372496605419609370e-02,-1.217691018801923993e-02,-1.033915179261694732e-02,-8.387226988705094588e-03,-6.508145413991650759e-03,-4.878546521404079732e-03,-3.647988839611756001e-03,-2.927211491039958570e-03,-2.780639276562019060e-03,-3.223383332841375359e-03,-4.222888205685886021e-03,-5.704568611862820965e-03,-7.560406640231775999e-03,-9.659123699590696499e-03,-1.185622473828135820e-02,-1.400292337636144246e-02,-1.595449854497738018e-02,-1.757955836353479462e-02,-1.877084961645304750e-02,-1.945609867264561088e-02,-1.960603661662719752e-02,-1.923738456912202355e-02,-1.841003162957808095e-02,-1.721922152115971938e-02,-1.578531276178824980e-02,-1.424414850221405841e-02,-1.273897378461406882e-02,-1.141205487353772093e-02,-1.039385228711093949e-02,-9.789977811874258848e-03,-9.668581650844073824e-03,-1.005150498605754741e-02,-1.091165392807928562e-02,-1.217708744653811168e-02,-1.374020124059535143e-02,-1.546962392185843339e-02,-1.722323170742335111e-02,-1.886168988348924450e-02,-2.026195044303414489e-02,-2.132921009551521849e-02,-2.200521648325966251e-02,-2.227165674415346186e-02,-2.214925291366550211e-02,-2.169449531098240763e-02,-2.099559665765564354e-02,-2.016784790984538916e-02,-1.934724936877707524e-02,-1.868076074458011396e-02,-1.831251662307313219e-02,-1.836767059472661431e-02,-1.893728551163337270e-02,-2.006763950197164303e-02,-2.175568060324071379e-02,-2.394984488269533834e-02,-2.655378947424436378e-02,-2.943166493943231640e-02,-3.241629340579769980e-02,-3.532249831348722308e-02,-3.796539716645251639e-02,-4.018018794016717243e-02,-4.183897840787374756e-02,-4.286190381159586671e-02,-4.322223643050682879e-02,-4.294680913182171572e-02,-4.211347026179733388e-02,-4.084653387576737960e-02,-3.930949640464981298e-02,-3.769281402834574746e-02,-3.619550027131072933e-02,-3.500290959731396090e-02,-3.426580155734596650e-02,-3.408501521926790567e-02,-3.450327260548174263e-02,-3.550315792219529976e-02,-3.700940554823037992e-02,-3.889467387293672751e-02,-4.098975097231823822e-02,-4.309939380840207418e-02,-4.502318500836642590e-02,-4.657853052477122641e-02,-4.762192437277174700e-02,-4.806509082891897988e-02,-4.788390246061324795e-02,-4.711960769187934633e-02,-4.587342486916698436e-02,-4.429611944772929993e-02,-4.257337094612145129e-02,-4.090678043918049428e-02,-3.949129201152783153e-02,-3.849227121864574885e-02,-3.802667744838106323e-02,-3.815153580863354932e-02,-3.886081353188403087e-02,-4.009011375023488477e-02,-4.172740077489181520e-02,-4.362750029677119751e-02,-4.562881666204460229e-02,-4.757155835828355550e-02,-4.931581927551369204e-02,-5.075606835226307428e-02,-5.182919527907624280e-02,-5.251610205258953890e-02,-5.283862743054951183e-02,-5.285332236134730050e-02,-5.264294005258331188e-02,-5.230654433800224767e-02,-5.194907408398261733e-02,-5.167031147293560389e-02,-5.155316391124003389e-02,-5.165313169945896093e-02,-5.199210712950244617e-02,-5.255807467484238660e-02,-5.330977273287445389e-02,-5.418410429983783194e-02,-5.510398850371203694e-02,-5.598503057532250998e-02,-5.674091927707201888e-02,-5.728916174858417892e-02,-5.755891098649784654e-02,-5.750055275116512654e-02,-5.709437367561487342e-02,-5.635535802161512758e-02,-5.533284437780709025e-02,-5.410571666749179609e-02,-5.277476962291460794e-02,-5.145364148796194304e-02,-5.025872652518892369e-02,-4.929785403902697816e-02,-4.865844459985804032e-02,-4.839773788338597171e-02,-4.853797164432373246e-02,-4.906730841170667962e-02,-4.994516604067709975e-02,-5.110995244552089811e-02,-5.248720638305798963e-02,-5.399625973668648049e-02,-5.555466259246796823e-02,-5.708176783834326140e-02,-5.850372086117625048e-02,-5.976005368044514515e-02,-6.080944264315765041e-02,-6.163225883429843122e-02,-6.222996859161247091e-02,-6.262323059340087206e-02,-6.285040221282878203e-02,-6.296699970736706342e-02,-6.304488051522434688e-02,-6.316804178540215420e-02,-6.342228564403885882e-02,-6.387963904381800673e-02,-6.458214312239266008e-02,-6.553001271596946287e-02,-6.667687084551861265e-02,-6.793234213221906181e-02,-6.917089539217849414e-02,-7.024537607456519950e-02,-7.100378739903707992e-02,-7.130800710374807228e-02,-7.105260715817804384e-02,-7.018078380790170046e-02,-6.869400571790292009e-02,-6.665348629119642598e-02,-6.417401337924637239e-02,-6.141268776172435773e-02,-5.855616937115201703e-02,-5.580904982630607858e-02,-5.338288005479378817e-02,-5.148292426896920043e-02,-5.029062033387783626e-02,-4.994325158196191716e-02,-5.051521761145725403e-02,-5.200547097647242878e-02,-5.433370011950897777e-02,-5.734530541541497939e-02,-6.082351668275799011e-02,-6.450667896235122434e-02,-6.810950230114559689e-02,-7.134794280374760767e-02,-7.396660389733267227e-02,-7.576490273649769125e-02,-7.661670249076463213e-02,-7.647986256289035500e-02,-7.539548350362156037e-02,-7.347893048944020844e-02,-7.090548149074872575e-02,-6.789305927689769093e-02,-6.468311347941108069e-02,-6.151940010147549653e-02,-5.862517531967902096e-02,-5.618192734584570580e-02,-5.431403049054290416e-02,-5.308184165261106008e-02,-5.248269897089321429e-02,-5.245767468232785669e-02,-5.290206740307977495e-02,-5.367831544108441627e-02,-5.463083885155068514e-02,-5.560287082446114387e-02,-5.645442001372247276e-02,-5.707846051667565118e-02,-5.741166253798458963e-02,-5.743755745328681106e-02,-5.718262839126926622e-02,-5.670773043593955315e-02,-5.609774439094779991e-02,-5.545154879638027057e-02,-5.487281981484903176e-02,-5.446099088886116601e-02,-5.430218420386781486e-02,-5.446150906935088437e-02,-5.497862735955303531e-02,-5.586727490977305699e-02,-5.711792238103295671e-02,-5.870178578229960642e-02,-6.057399073437034348e-02,-6.267466833457452369e-02,-6.492926035941734564e-02,-6.725102717925948714e-02,-6.954740155764117804e-02,-7.172855414474053892e-02,-7.371478672197283311e-02,-7.544066772497470819e-02,-7.685630213339851580e-02,-7.792746122065770387e-02,-7.863616408871285102e-02,-7.898237041546993242e-02,-7.898602997326810427e-02,-7.868764314733643628e-02,-7.814587736468844859e-02,-7.743216048222335834e-02,-7.662309562371225069e-02,-7.579197053705896692e-02,-7.500099955032646371e-02,-7.429558650748059601e-02,-7.370063160378045874e-02,-7.321828847295029641e-02,-7.282775735310008380e-02,-7.248907650986503859e-02,-7.215190246123305562e-02,-7.176719637113032624e-02,-7.129768036118272478e-02,-7.072385739433870167e-02,-7.004505701712200605e-02,-6.927729054572326350e-02,-6.845058191498278044e-02,-6.760748661636621637e-02,-6.680216510233144556e-02,-6.609738880292610752e-02,-6.555743291809147666e-02,-6.523780076318667909e-02,-6.517484371415724342e-02,-6.537773454312743870e-02,-6.582389001154996533e-02,-6.645840103887820649e-02,-6.719736729832680167e-02,-6.793402371444409726e-02,-6.854668137585698262e-02,-6.890872875279765997e-02,-6.890109262173556293e-02,-6.842601193359494627e-02,-6.741963110190277164e-02,-6.586121309795940626e-02,-6.377819052757913165e-02,-6.124750730093013462e-02,-5.839382040765503379e-02,-5.538416575689195098e-02,-5.241773382835712702e-02,-4.970976048757228677e-02,-4.747048808481878907e-02,-4.588234846823666807e-02,-4.507940286646934525e-02,-4.513258066664600776e-02,-4.604288018053927234e-02,-4.774266288440782297e-02,-5.010347758830523135e-02,-5.294841408100565971e-02,-5.606752615644935989e-02,-5.923571504301802099e-02,-6.223260476413828429e-02,-6.486271676243382522e-02,-6.697304456793434779e-02,-6.846537003018991763e-02,-6.930177720352874438e-02,-6.950317788237440897e-02,-6.914208818758832420e-02,-6.833152696069891285e-02,-6.721149530722066168e-02,-6.593396717430166643e-02,-6.464735167140657490e-02,-6.348190685711552206e-02,-6.253795404490028464e-02,-6.187841451983811664e-02,-6.152621289896433032e-02,-6.146582948377935646e-02,-6.164753706098752978e-02,-6.199324079950029737e-02,-6.240388570556375247e-02,-6.276921334338124436e-02,-6.298038355937535249e-02,-6.294428437589386083e-02,-6.259654180441782956e-02,-6.191012066603361619e-02,-6.089798491125482383e-02,-5.961019565516815361e-02,-5.812706296628609298e-02,-5.655015943693099401e-02,-5.499212913762521054e-02,-5.356526729094446965e-02,-5.236946948397121215e-02,-5.148184085268506932e-02,-5.095020604301094685e-02,-5.079068486124338477e-02,-5.098814372103754877e-02,-5.149846906703516719e-02,-5.225184842697639526e-02,-5.315643901908348457e-02,-5.410263022896065477e-02,-5.496919433591181819e-02,-5.563262133967732115e-02,-5.597917973867000407e-02,-5.591728857315202139e-02,-5.538770930033691531e-02,-5.437046332908684887e-02,-5.288834095796871720e-02,-5.100689324866692492e-02,-4.883065977012975012e-02,-4.649545523115184570e-02,-4.415673559843300011e-02,-4.197454873338296588e-02,-4.009645171416559989e-02,-3.864053094434648228e-02,-3.768089699818320815e-02,-3.723800543549034975e-02,-3.727576229229908472e-02,-3.770603795096779537e-02,-3.839940192038857752e-02,-3.920013950095715266e-02,-3.994427208353303754e-02,-4.047953927189507084e-02,-4.068489362902335399e-02,-4.048576133315819753e-02,-3.986227593083442600e-02,-3.885015421127389901e-02,-3.753550235590618483e-02,-3.604480808869899022e-02,-3.453084549583675111e-02,-3.315520618874812780e-02,-3.206853839817457724e-02,-3.139045626046041426e-02,-3.119266969048788141e-02,-3.148937926952951466e-02,-3.223678396731763374e-02,-3.334053505156773373e-02,-3.466844490892957709e-02,-3.606551321909651220e-02,-3.736895085536198063e-02,-3.842250428607583285e-02,-3.909081349705373354e-02,-3.927393209656167283e-02,-3.891963524193887275e-02,-3.802934246782106731e-02,-3.665465808990059360e-02,-3.488518116809945918e-02,-3.283198541657095237e-02,-3.061268345969215404e-02,-2.834218018434907921e-02,-2.612918023711174528e-02,-2.407517385507203928e-02,-2.227246872211244982e-02,-2.080034048028259891e-02,-1.972046022947783819e-02,-1.907277586905099104e-02,-1.887240271091399774e-02,-1.910799243400579731e-02,-1.974175860000444704e-02,-2.071082072905606683e-02,-2.193013233605115714e-02,-2.329856018974676285e-02,-2.470913540185734961e-02,-2.606183367096705228e-02,-2.727563514530709915e-02,-2.829762847084382749e-02,-2.910848019183642776e-02,-2.972408576791607873e-02,-3.019336379226289155e-02,-3.059255800347885496e-02,-3.101659600543796302e-02,-3.156780955571499708e-02,-3.234252050201160550e-02,-3.341733669398753992e-02,-3.483819692711977167e-02,-3.661445862059143491e-02,-3.871834411176604956e-02,-4.108874493474908018e-02,-4.363780135332408217e-02,-4.625827076844449270e-02,-4.883026264714479536e-02,-5.122780722923296615e-02,-5.332705468503366047e-02,-5.501675027319418571e-02,-5.620913726442815228e-02,-5.684849404421046110e-02,-5.691583789579217345e-02,-5.643011964019534199e-02,-5.544691182617866171e-02,-5.405502372734604516e-02,-5.237047611824773019e-02,-5.052695327562441857e-02,-4.866284436342675074e-02,-4.690677442938530339e-02,-4.536452942800007354e-02,-4.410951763799706576e-02,-4.317752837181337844e-02,-4.256591758926941277e-02,-4.223695483914996496e-02,-4.212437909158858046e-02,-4.214207144662848736e-02,-4.219447903998968519e-02,-4.218880647792611766e-02,-4.204791764783142455e-02,-4.172124369832224539e-02,-4.119084885696154552e-02,-4.047166143152550188e-02,-3.960713295765145442e-02,-3.866260978333522363e-02,-3.771823585862548595e-02,-3.686189008916485738e-02,-3.618133361472507248e-02,-3.575472274497051156e-02,-3.564056254317537337e-02,-3.587008419262523173e-02,-3.644441874006543874e-02,-3.733626484458743566e-02,-3.849368913778739021e-02,-3.984377050087183764e-02,-4.129530246264547649e-02,-4.274151809756375486e-02,-4.406509294503904023e-02,-4.514747167030990632e-02,-4.588215846450117985e-02,-4.618861259015425574e-02,-4.602241634111838009e-02,-4.537897762150727016e-02,-4.429081049216369859e-02,-4.282084422782466565e-02,-4.105491294787710216e-02,-3.909503051442315275e-02,-3.705257333303181577e-02,-3.503968972015653743e-02,-3.315914338394113092e-02,-3.149505334545484730e-02,-3.010697925591503815e-02,-2.902801615183948220e-02,-2.826603533394196621e-02,-2.780661698459565428e-02,-2.761619690113607112e-02,-2.764460529470977659e-02,-2.782779696089511534e-02,-2.809289147406450471e-02,-2.836660938494151712e-02,-2.858543857194158211e-02,-2.870438822514826543e-02,-2.870207227085293938e-02,-2.858158322809808277e-02,-2.836786258046754619e-02,-2.810276749657657919e-02,-2.783868273913297359e-02,-2.763073067012355652e-02,-2.752768796529451653e-02,-2.756311625003465479e-02,-2.774916722737770514e-02,-2.807434178693909640e-02,-2.850431943600578374e-02,-2.898405871282151020e-02,-2.944009431286997991e-02,-2.978331753072054056e-02,-2.991373862246475904e-02,-2.972904109716263676e-02,-2.913713866395215013e-02,-2.806980835753180442e-02,-2.649243019757803116e-02,-2.440611953475180229e-02,-2.184228163190823566e-02,-1.885326303031822567e-02,-1.550411609840437327e-02,-1.186862958042269288e-02,-8.028935669105882744e-03,-4.075100890143035573e-03,-1.013467174221060584e-04,3.801683311387063849e-03,7.556662684231552941e-03,1.110883294630407928e-02,1.443302654630067294e-02,1.753757446089840299e-02,2.046471827684599037e-02,2.328734460811063972e-02,2.610180734574831657e-02,2.901632281673248090e-02,3.213485561689480297e-02,3.553856276346407245e-02,3.926910072789592532e-02,4.331777710514111285e-02,4.762212504844347966e-02,5.206955070176913503e-02,5.650705167203293883e-02,6.075567257683892053e-02,6.462814708183742263e-02,6.794865695014191964e-02,7.057394591740039080e-02,7.241361473596656662e-02,7.344543450522889039e-02,7.372171487934722767e-02,7.336551674056972228e-02,7.255856890496271971e-02,7.152405811926813850e-02,7.050706486897066749e-02,6.975461602990144783e-02,6.949642881249452897e-02,6.992663267175208697e-02,7.118723448368884099e-02,7.335542531679757616e-02,7.643688812250154507e-02,8.036568077938316401e-02,8.500967515034742183e-02,9.018004899283825482e-02,9.564396655699673733e-02,1.011407323827912680e-01,1.064020704994474986e-01,1.111756722181245910e-01,1.152485643401353205e-01,1.184654725203403702e-01,1.207383431819757380e-01,1.220459017851165812e-01,1.224254921846983785e-01,1.219616946945852737e-01,1.207757413731593843e-01,1.190176538071468504e-01,1.168614649708901443e-01,1.145026904929621614e-01,1.121555240177055102e-01,1.100459045347840503e-01,1.083971012803820050e-01,1.074070930300059651e-01,1.072205861840491853e-01,1.079012316079459993e-01,1.094105516340800333e-01,1.115994872295962004e-01,1.142164675191751771e-01,1.169321902966344584e-01,1.193768278944126598e-01,1.211827505678566702e-01,1.220261678164351188e-01,1.216627016511692000e-01,1.199536437412168643e-01,1.168813449697907736e-01,1.125528461425149979e-01,1.071901556861740018e-01,1.011055181435529804e-01,9.466266554267399602e-02,8.822963198460531675e-02,8.213201551092184916e-02,7.661542433809033492e-02,7.182300194535944093e-02,6.778979520882499887e-02,6.445127986921803109e-02,6.166073315792183762e-02,5.921120438048629864e-02,5.686080828436475970e-02,5.436110450812321054e-02,5.148653692145839511e-02,4.806107476907579834e-02,4.397817689442826139e-02,3.921127588904238515e-02,3.381390485437758830e-02,2.791125051310688193e-02,2.168635414728251401e-02,1.536332964629910126e-02,9.188372459629310512e-03,3.408630465941369422e-03,-1.750367285385709491e-03,-6.106616252230845192e-03,-9.539818295611242338e-03,-1.200299351397532757e-02,-1.352571641239117689e-02,-1.420865024763850494e-02,-1.421075960019194985e-02,-1.373171724365557407e-02,-1.299169281657504629e-02,-1.220975110810744273e-02,-1.158235078932787730e-02,-1.126466987946769284e-02,-1.135777605757603767e-02,-1.190350436375890372e-02,-1.288691187918135014e-02,-1.424404167411185904e-02,-1.587207842322733639e-02,-1.764063029422536372e-02,-1.940470770461917571e-02,-2.101964855991006464e-02,-2.235641404662074352e-02,-2.331479689778676728e-02,-2.383296015872169576e-02,-2.389290466678354111e-02,-2.352205258364363852e-02,-2.279171938160306360e-02,-2.181375188613138977e-02,-2.073593752430346465e-02,-1.973496187523129594e-02,-1.900469384210941998e-02,-1.873905946913671100e-02,-1.911162122192917520e-02,-2.025567390484200522e-02,-2.224819444467552795e-02,-2.509922257285357450e-02,-2.874653617803013886e-02,-3.305494452502648339e-02,-3.782070662197507122e-02,-4.278334942504772448e-02,-4.764693345279315956e-02,-5.210959767045699603e-02,-5.589611316135703611e-02,-5.878566896366545225e-02,-6.062715733715898225e-02,-6.133743527200582329e-02,-6.088393383501107536e-02,-5.925786781668140879e-02,-5.644418901322148518e-02,-5.239073547608368714e-02,-4.697767760960485511e-02,-3.999177901973680754e-02,-3.111336195385211098e-02,-1.992208015967085119e-02,-5.921848547628076088e-03,1.142004862617656581e-02,3.262704142511459182e-02,5.816705364601074124e-02,8.840915659619323630e-02,1.235825064139860902e-01,1.637358645037385318e-01,2.086989571592122450e-01,2.580508115696706906e-01,3.111009729567366655e-01,3.668873770262486289e-01,4.241922793860443686e-01,4.815767137315598578e-01,5.374344089259238677e-01,5.900662315654588985e-01,6.377743010562763049e-01,6.789703028460132295e-01,7.122865130792548349e-01,7.366746103063332995e-01,7.514786247608802316e-01,0.000000000000000000e+00,0.000000000000000000e+00,0.000000000000000000e+00,0.000000000000000000e+00,0.000000000000000000e+00,0.000000000000000000e+00,0.000000000000000000e+00,0.000000000000000000e+00,0.000000000000000000e+00,0.000000000000000000e+00,0.000000000000000000e+00,0.000000000000000000e+00,0.000000000000000000e+00,0.000000000000000000e+00,0.000000000000000000e+00,0.000000000000000000e+00,0.000000000000000000e+00,0.000000000000000000e+00,0.000000000000000000e+00,0.000000000000000000e+00,0.000000000000000000e+00,0.000000000000000000e+00,0.000000000000000000e+00,0.000000000000000000e+00,0.000000000000000000e+00,0.000000000000000000e+00,0.000000000000000000e+00,0.000000000000000000e+00,0.000000000000000000e+00,0.000000000000000000e+00,0.000000000000000000e+00,0.000000000000000000e+00,0.000000000000000000e+00,0.000000000000000000e+00,0.000000000000000000e+00,0.000000000000000000e+00,0.000000000000000000e+00,0.000000000000000000e+00,0.000000000000000000e+00,0.000000000000000000e+00,0.000000000000000000e+00,0.000000000000000000e+00,0.000000000000000000e+00,0.000000000000000000e+00,0.000000000000000000e+00,0.000000000000000000e+00,0.000000000000000000e+00,0.000000000000000000e+00,0.000000000000000000e+00,0.000000000000000000e+00,0.000000000000000000e+00,0.000000000000000000e+00,0.000000000000000000e+00,0.000000000000000000e+00,0.000000000000000000e+00,0.000000000000000000e+00,0.000000000000000000e+00,0.000000000000000000e+00,0.000000000000000000e+00,0.000000000000000000e+00,0.000000000000000000e+00,0.000000000000000000e+00,0.000000000000000000e+00,0.000000000000000000e+00,0.000000000000000000e+00,0.000000000000000000e+00,0.000000000000000000e+00,0.000000000000000000e+00,0.000000000000000000e+00,0.000000000000000000e+00,0.000000000000000000e+00,0.000000000000000000e+00,0.000000000000000000e+00,0.000000000000000000e+00,0.000000000000000000e+00,0.000000000000000000e+00,0.000000000000000000e+00,0.000000000000000000e+00,0.000000000000000000e+00,0.000000000000000000e+00,0.000000000000000000e+00,0.000000000000000000e+00,0.000000000000000000e+00,0.000000000000000000e+00,0.000000000000000000e+00,0.000000000000000000e+00,0.000000000000000000e+00,0.000000000000000000e+00,0.000000000000000000e+00,0.000000000000000000e+00,0.000000000000000000e+00,0.000000000000000000e+00,0.000000000000000000e+00,0.000000000000000000e+00,0.000000000000000000e+00,0.000000000000000000e+00,0.000000000000000000e+00,0.000000000000000000e+00,0.000000000000000000e+00,0.000000000000000000e+00,0.000000000000000000e+00,0.000000000000000000e+00,0.000000000000000000e+00,0.000000000000000000e+00,0.000000000000000000e+00,0.000000000000000000e+00
7.564719510552596615e-01,7.518528500002115145e-01,7.381996209731152003e-01,7.163947602261440117e-01,6.875339278896862583e-01,6.528377074635448585e-01,6.135793195019662027e-01,5.710307915583019422e-01,5.264213012324163721e-01,4.809006922976704623e-01,4.355057800495403253e-01,3.911309562969620401e-01,3.485061218014076645e-01,3.081854563480056486e-01,2.705499920451625018e-01,2.358245850034256796e-01,2.041062161983606960e-01,1.753971608839216823e-01,1.496353384081209603e-01,1.267159744871796390e-01,1.065022855938402985e-01,8.882682814700422480e-02,7.348865252864779374e-02,6.025233515043013077e-02,4.885210555827364937e-02,3.900062516191218909e-02,3.040125066633081810e-02,2.276406487402404810e-02,1.582573046144110374e-02,9.370192705417595275e-03,3.244643821839514591e-03,-2.634151088009082601e-03,-8.284968851342755167e-03,-1.367724419672175160e-02,-1.875214568270013038e-02,-2.344388174351097823e-02,-2.769593818459084589e-02,-3.146996764379058481e-02,-3.474852270887477529e-02,-3.753427382705189219e-02,-3.984780027791601925e-02,-4.172479224833395423e-02,-4.321237416385846630e-02,-4.436393776076594242e-02,-4.523294517369184226e-02,-4.586797045832148589e-02,-4.631153037029064196e-02,-4.660276396311624492e-02,-4.678113629662714046e-02,-4.688816623359030183e-02,-4.696633927208083287e-02,-4.705646696304770227e-02,-4.719549076207701921e-02,-4.741599922132280764e-02,-4.774703358342361620e-02,-4.821416703751900401e-02,-4.883674395101886972e-02,-4.962208851474227828e-02,-5.055879518742223411e-02,-5.161181088699749037e-02,-5.272107370034832818e-02,-5.380429534845853484e-02,-5.476354155755898401e-02,-5.549447871710556229e-02,-5.589665873478846803e-02,-5.588349409602839934e-02,-5.539135013825620402e-02,-5.438726262454159771e-02,-5.287419535598747444e-02,-5.089274145047850001e-02,-4.851900809310568524e-02,-4.585942215359155999e-02,-4.304385328842079417e-02,-4.021836177109364835e-02,-3.753788288018872210e-02,-3.515786506403766748e-02,-3.322349595282171608e-02,-3.185637894743453824e-02,-3.114034561967739256e-02,-3.110902092052342943e-02,-3.173789700847332723e-02,-3.294353127302949297e-02,-3.459130839621522152e-02,-3.651044678431787649e-02,-3.851233410104114296e-02,-4.040845188293840096e-02,-4.202653516413707574e-02,-4.322488242634091316e-02,-4.390407374818872804e-02,-4.401491194810390473e-02,-4.356197468086774743e-02,-4.260284624912588636e-02,-4.124336282943207033e-02,-3.962914498119837758e-02,-3.793348826941637247e-02,-3.634153692557442333e-02,-3.503127352984598819e-02,-3.415361852202693921e-02,-3.381536842501452894e-02,-3.406814715255268577e-02,-3.490455921254389388e-02,-3.626082009613274676e-02,-3.802413736021630075e-02,-4.004328448567029408e-02,-4.214162215266783335e-02,-4.413234562857223930e-02,-4.583548180735078775e-02,-4.709508168360680702e-02,-4.779396811977049131e-02,-4.786362419275365376e-02,-4.728830461241425448e-02,-4.610392501722458680e-02,-4.439292615409420190e-02,-4.227618709315797418e-02,-3.990249539105891752e-02,-3.743541488318813393e-02,-3.503738235833315368e-02,-3.285229474286650853e-02,-3.098989094404674613e-02,-2.951568317338546313e-02,-2.844817866954753305e-02,-2.776229287023454159e-02,-2.739635879885345127e-02,-2.726041333576230755e-02,-2.724460230163893229e-02,-2.722804747155227814e-02,-2.708959672264564175e-02,-2.672105359178642350e-02,-2.604103230590953597e-02,-2.500605605238186493e-02,-2.361629747299178253e-02,-2.191545304912625655e-02,-1.998605637812190389e-02,-1.794197519686620279e-02,-1.591893901615493850e-02,-1.406289180636465831e-02,-1.251589797625936480e-02,-1.140049226829299538e-02,-1.080483586064353956e-02,-1.077140550852354571e-02,-1.129096457592498014e-02,-1.230225911425727840e-02,-1.369697380937027684e-02,-1.532909508440480871e-02,-1.702795551832408244e-02,-1.861453568465135794e-02,-1.992029171735944237e-02,-2.080639456658556902e-02,-2.117988088735654056e-02,-2.100367777823501994e-02,-2.029953772145674101e-02,-1.914450271249019953e-02,-1.766201567066173067e-02,-1.600921154296008550e-02,-1.436211828042540176e-02,-1.289959879933568095e-02,-1.178589227829177771e-02,-1.115260126831116652e-02,-1.108325537412204603e-02,-1.160424729735089547e-02,-1.268402176446992505e-02,-1.423954995073709734e-02,-1.614707629977704673e-02,-1.825391203382041930e-02,-2.038981847360805608e-02,-2.237874054873451382e-02,-2.405215272658579179e-02,-2.526371260754322126e-02,-2.590308287948935376e-02,-2.590633956672530255e-02,-2.526129721918344076e-02,-2.400754493733871578e-02,-2.223235000123397614e-02,-2.006403962547804662e-02,-1.766343607601477891e-02,-1.521229192340011610e-02,-1.289750953372111909e-02,-1.089198185579880705e-02,-9.335242422759099101e-03,-8.317545274214173043e-03,-7.869776377981753737e-03,-7.960375216483959668e-03,-8.499709923237997594e-03,-9.351557045311442024e-03,-1.035041584758454244e-02,-1.132287866227631862e-02,-1.211113844149165446e-02,-1.259596053311835134e-02,-1.271497218230898708e-02,-1.247173507882833390e-02,-1.193316505334790327e-02,-1.121635578807623351e-02,-1.046860924384984334e-02,-9.845494249504451595e-03,-9.490986879769942527e-03,-9.521357270787572311e-03,-1.001215090577296449e-02,-1.098792697917326706e-02,-1.241667550041696509e-02,-1.421151409215001826e-02,-1.624026166273155256e-02,-1.834078894020919892e-02,-2.033846534428764355e-02,-2.206221098162247651e-02,-2.335743768516802474e-02,-2.409622393873479124e-02,-2.418568958310323216e-02,-2.357450481738113807e-02,-2.225640295695152995e-02,-2.026973079234127215e-02,-1.769309976159976275e-02,-1.463811994786202997e-02,-1.124052182291387057e-02,-7.650798846921474244e-03,-4.025009784355046590e-03,-5.156328979766066191e-04,2.737985468869827584e-03,5.619233430607442452e-03,8.042398977216468417e-03,9.957995487582549723e-03,1.135489464084777148e-02,1.225951723247503851e-02,1.273216850270137389e-02,1.286045874081278781e-02,1.274994620333324245e-02,1.251238015434876991e-02,1.225257863794407612e-02,1.205632726232113566e-02,1.198239261523016165e-02,1.206062399658003326e-02,1.229576997718400018e-02,1.267426413360757745e-02,1.317013401984522963e-02,1.374742749700983563e-02,1.435952669213628498e-02,1.494842588779875248e-02,1.544763937669893505e-02,1.579021187219264641e-02,1.591992057360355761e-02,1.580205773821042811e-02,1.543101613698820429e-02,1.483361662032295705e-02,1.406817387118634508e-02,1.321957078323873422e-02,1.239060515012611191e-02,1.168986408234597846e-02,1.121689187252034557e-02,1.104694010626985218e-02,1.121893163409086805e-02,1.172961933810522279e-02,1.253463799175284082e-02,1.355513130476524580e-02,1.468779087130780113e-02,1.581608998788483489e-02,1.682109916262002069e-02,1.759163933015635978e-02,1.803441016959430113e-02,1.808376549948768550e-02,1.770921110202634124e-02,1.691854006628467494e-02,1.575580760679796272e-02,1.429497578369417002e-02,1.263125019415378865e-02,1.087222705920519276e-02,9.129758880378695263e-03,7.511847917007449457e-03,6.113655285711596700e-03,5.008565276642886963e-03,4.241927350291078633e-03,3.829036497459044949e-03,3.756281359819425760e-03,3.983224069365582341e-03,4.444398961903583273e-03,5.051378446797230755e-03,5.696640132006906485e-03,6.260564462800522444e-03,6.621930115436660061e-03,6.670804641068698790e-03,6.321351172456711465e-03,5.522036298152050923e-03,4.262070046525475060e-03,2.574172240679266453e-03,5.338270810044310919e-04,-1.745533359909887984e-03,-4.122151158369168587e-03,-6.440323555290550055e-03,-8.548250921454739193e-03,-1.031656328803848624e-02,-1.165390829980421372e-02,-1.251686317302461333e-02,-1.291311505411711635e-02,-1.289819495269738971e-02,-1.256715006122268580e-02,-1.204316078834639578e-02,-1.146477830779053797e-02,-1.097256953735651144e-02,-1.069542357456220415e-02,-1.073731185013910953e-02,-1.116638250827146732e-02,-1.200838365156746412e-02,-1.324520073857869337e-02,-1.481793182195189837e-02,-1.663323537722917814e-02,-1.857147877096958569e-02,-2.049531462151822636e-02,-2.225804914306358726e-02,-2.371222255052208780e-02,-2.471908975786862861e-02,-2.515912252005067518e-02,-2.494298999789189980e-02,-2.402168918729776989e-02,-2.239385788065675897e-02,-2.010866667179545333e-02,-1.726373087738172427e-02,-1.399816780042555976e-02,-1.048107479114882348e-02,-6.895969602983069782e-03,-3.422782327564386721e-03,-2.203028048696135770e-04,2.587948672824054788e-03,4.922820522537200635e-03,6.753421758119166306e-03,8.096503734166839855e-03,9.012425722990425464e-03,9.598290432161328198e-03,9.977572749002206268e-03,1.028530891930352562e-02,1.065003428096286328e-02,1.117651715509569536e-02,1.193374928084264819e-02,1.295018066779846447e-02,1.421533360845812430e-02,1.568540676672368350e-02,1.729038669585873655e-02,1.894149459992671564e-02,2.053973004528120150e-02,2.198679775399544484e-02,2.319790017580402111e-02,2.411372438733712376e-02,2.470881482667492898e-02,2.499501560515801635e-02,2.501998927095690564e-02,2.486151144663120358e-02,2.461879100361611880e-02,2.440224885972450825e-02,2.432233272264103935e-02,2.447697269033884127e-02,2.493835467444323328e-02,2.574217439666132839e-02,2.688291822808499751e-02,2.831620878302650371e-02,2.996675458864969319e-02,3.173945646741061638e-02,3.353074123347921792e-02,3.523734001341995159e-02,3.676183558970050336e-02,3.801710138164938330e-02,3.893201873235929700e-02,3.945855520006438105e-02,3.957845267029666547e-02,3.930764718592931473e-02,3.869725396985307375e-02,3.783104122566969402e-02,3.682024451244185481e-02,3.579634090659401108e-02,3.490114324113010452e-02,3.427295467206474544e-02,3.402920429818063336e-02,3.424923535193641344e-02,3.496241033990179353e-02,3.614460006156439836e-02,3.772264993239603931e-02,3.958443384588504477e-02,4.159184641224575318e-02,4.359462418198074146e-02,4.544400169553701463e-02,4.700625214666950130e-02,4.817579594085027311e-02,4.888614328318317132e-02,4.911650321196134317e-02,4.889304059034297462e-02,4.828523761290574173e-02,4.739871311372845925e-02,4.636608118167731551e-02,4.533689403495344550e-02,4.446652309708549328e-02,4.390299118998539085e-02,4.377161196927610576e-02,4.415969318325350945e-02,4.510530557804007246e-02,4.659311381542646097e-02,4.855722455072207511e-02,5.088871181883082573e-02,5.344543528181218417e-02,5.606308928141165437e-02,5.856765995132251490e-02,6.078976936881577697e-02,6.258040880961887598e-02,6.382598836051725510e-02,6.445999383272740801e-02,6.446941603685929501e-02,6.389566708281681218e-02,6.283100530855371957e-02,6.141189630118563253e-02,5.980989501499862221e-02,5.821925499615100003e-02,5.684013277769637412e-02,5.585789734153270153e-02,5.542168291804761698e-02,5.562670623686584437e-02,5.650385563420673440e-02,5.801757348750721799e-02,6.007085267991953831e-02,6.251534545632489448e-02,6.516518221665346111e-02,6.781440690549755956e-02,7.025835675248244538e-02,7.231728972936908584e-02,7.385751399320945876e-02,7.480491733136301891e-02,7.514883078806749994e-02,7.493753661606249172e-02,7.426827188435664029e-02,7.327447949193628685e-02,7.211199434668112696e-02,7.094443904415279056e-02,6.992742171307332610e-02,6.919205720401913617e-02,6.883018225060061335e-02,6.888464964006617286e-02,6.934725787274770292e-02,7.016440242683329165e-02,7.124773938883020852e-02,7.248605391711496204e-02,7.375593781400793802e-02,7.493144059289030823e-02,7.589424289358095987e-02,7.654482011605927283e-02,7.681294730493642975e-02,7.666522113300265617e-02,7.610819624170574171e-02,7.518697244325374396e-02,7.398017599631692698e-02,7.259288725467188952e-02,7.114857058461974970e-02,6.977977596014341144e-02,6.861663614659821442e-02,6.777312823443167045e-02,6.733321513066735375e-02,6.734030329422963090e-02,6.779254358473410513e-02,6.864411372768138009e-02,6.981075225038421705e-02,7.117760235528819424e-02,7.260837961971529364e-02,7.395604605784220076e-02,7.507560689682463151e-02,7.583844013940894968e-02,7.614561914927833741e-02,7.593736277812662694e-02,7.519741904325058512e-02,7.395303919645045132e-02,7.227197523384994160e-02,7.025755049022347487e-02,6.804177458376535481e-02,6.577549382641285913e-02,6.361457815068394250e-02,6.170272755044112906e-02,6.015383918211483077e-02,5.903803205249773950e-02,5.837441080733042631e-02,5.813123057676170685e-02,5.823183726127864612e-02,5.856390829160650763e-02,5.899020945236231606e-02,5.936049736723147258e-02,5.952517267169260551e-02,5.935053516561036163e-02,5.873349254391518198e-02,5.761277699466504920e-02,5.597500212114474988e-02,5.385563227879521658e-02,5.133586440626466962e-02,4.853660504232749917e-02,4.561032374881581614e-02,4.273053327221975478e-02,4.007781562706815709e-02,3.782214040846879760e-02,3.610351196587641143e-02,3.501481852239412412e-02,3.459091434801137704e-02,3.480623224130966614e-02,3.558010198173001959e-02,3.678654804783954013e-02,3.826572701567512030e-02,3.983659975666772879e-02,4.131206103487507220e-02,4.251676172712658824e-02,4.330541692343047033e-02,4.357803098707305894e-02,4.328913564910290973e-02,4.244993880775904671e-02,4.112405307806818455e-02,3.941853820524796742e-02,3.747208904565684645e-02,3.544129522964677842e-02,3.348479904985648264e-02,3.174561229553807262e-02,3.033403414645736637e-02,2.931516066151163349e-02,2.870401247516344775e-02,2.846854371573835987e-02,2.853815530944396606e-02,2.881432968178491982e-02,2.918095270425938650e-02,2.951394270584962662e-02,2.969136039306003588e-02,2.960464980246741915e-02,2.916959668722543877e-02,2.833460757463084762e-02,2.708508253159769633e-02,2.544439578906992905e-02,2.347279224863326255e-02,2.126521938722162469e-02,1.894796508696252810e-02,1.667230034953862128e-02,1.460271769940522241e-02,1.289944610998585740e-02,1.169819004537595714e-02,1.109142955420763799e-02,1.111500488911562959e-02,1.174250700278620455e-02,1.288807013172115455e-02,1.441581879561633014e-02,1.615334941009710645e-02,1.790779571259603839e-02,1.948432246423257783e-02,2.070637249114074332e-02,2.143510360592328079e-02,2.158427585776765550e-02,2.112758991052051533e-02,2.009774677964203116e-02,1.857903748878894992e-02,1.669660044220456357e-02,1.460482424989756507e-02,1.247538366745761310e-02,1.048392996931240932e-02,8.794968456326658982e-03,7.546274433691033123e-03,6.835371805987586376e-03,6.710357905036781756e-03,7.166290483840095232e-03,8.147045127137927251e-03,9.551673402819036915e-03,1.124441116900973779e-02,1.306793276858338182e-02,1.485907159599106180e-02,1.646515054356606500e-02,1.775846241735930947e-02,1.864699934746816973e-02,1.908074469605408260e-02,1.905380450214021540e-02,1.860311123411436882e-02,1.780457823311086887e-02,1.676728666547053562e-02,1.562535112971766976e-02,1.452633360628089766e-02,1.361590312904526791e-02,1.302064941791232847e-02,1.283230065770866665e-02,1.309605555765616311e-02,1.380458066325832185e-02,1.489814961725134321e-02,1.627022173754946038e-02,1.777722845173170668e-02,1.925206075040084702e-02,2.052142851404644905e-02,2.142624581921738491e-02,2.184210981540729915e-02,2.169592346137038177e-02,2.097547419428699711e-02,1.973055297585831272e-02,1.806636881049809851e-02,1.613179809108887877e-02,1.410527623144909593e-02,1.217973804993098541e-02,1.054641662437376566e-02,9.377365944844713239e-03,8.808174524267313801e-03,8.923416987197452244e-03,9.746951669247660988e-03,1.123826811351256658e-02,1.329541415324310243e-02,1.576415983526622405e-02,1.845219308074116243e-02,2.114704244084741544e-02,2.363663168268136452e-02,2.573072600556685838e-02,2.728015790947893593e-02,2.819019749759373028e-02,2.842588568853421371e-02,2.800979675560911694e-02,2.701463195071871978e-02,2.555318800784146804e-02,2.376699964233539020e-02,2.181343839245844518e-02,1.985060642771850278e-02,1.802077188786379083e-02,1.643508778803797268e-02,1.516270275559284710e-02,1.422589955989358133e-02,1.360125380506415141e-02,1.322587722598831880e-02,1.300712479214837652e-02,1.283374060496525471e-02,1.258713764889598206e-02,1.215282940597824275e-02,1.143209079095721184e-02,1.035255870336605072e-02,8.875682875806126595e-03,6.999793531816823899e-03,4.759138714276071012e-03,2.220363373190012684e-03,-5.220137500701563672e-04,-3.350592811910637139e-03,-6.131493642060257404e-03,-8.723651019534909082e-03,-1.099123041805891675e-02,-1.281743606525413519e-02,-1.411733904800914138e-02,-1.484797680249580476e-02,-1.501432885504324147e-02,-1.466992800235891216e-02,-1.391207486027613155e-02,-1.287322383647859086e-02,-1.170995800004773213e-02,-1.058937607927084266e-02,-9.672628037080747282e-03,-9.097550059559282240e-03,-8.964083991852299371e-03,-9.325384645941795642e-03,-1.018527434169751167e-02,-1.150087157431834567e-02,-1.318846825608506988e-02,-1.513101864911806961e-02,-1.718694849512257539e-02,-1.920140666243726896e-02,-2.102050562768618611e-02,-2.250671346632232908e-02,-2.355243065860952723e-02,-2.409004661565697716e-02,-2.409812895787004708e-02,-2.360360929581234793e-02,-2.268020355932165097e-02,-2.144397080019194712e-02,-2.004598111964680379e-02,-1.866003166552518064e-02,-1.746397400984224177e-02,-1.661739144705830229e-02,-1.624167401605504032e-02,-1.640749010599929988e-02,-1.713089969734179693e-02,-1.837618242837335547e-02,-2.006220596246945098e-02,-2.206990051673539052e-02,-2.425070426010295793e-02,-2.643790129100504621e-02,-2.846221810021347734e-02,-3.017003862341256781e-02,-3.144029304717677054e-02,-3.219669651515037062e-02,-3.241424226919221302e-02,-3.212020990346527161e-02,-3.139023386034404950e-02,-3.034035431382247489e-02,-2.911600367006527551e-02,-2.787805323931354107e-02,-2.678617156310103553e-02,-2.598162564279598435e-02,-2.557280381613377673e-02,-2.562560192201939618e-02,-2.615893527153933043e-02,-2.714447076829439379e-02,-2.850926049710085161e-02,-3.014052818102639850e-02,-3.189352282023039109e-02,-3.360444064207730036e-02,-3.510878425052705448e-02,-3.626206488423791563e-02,-3.695794752487819440e-02,-3.714030772496743765e-02,-3.680831480872682332e-02,-3.601530124277349532e-02,-3.486243263234523049e-02,-3.348795002723270464e-02,-3.205256266559730616e-02,-3.072160948117676552e-02,-2.964555241553806092e-02,-2.894201956721800806e-02,-2.868311915273196594e-02,-2.889015962077156816e-02,-2.953552531569164641e-02,-3.054985012058842458e-02,-3.183228180020825776e-02,-3.326210307657005011e-02,-3.471069702855433120e-02,-3.605348410402232917e-02,-3.718145158462204253e-02,-3.801112490201796756e-02,-3.849154157861120473e-02,-3.860767370593373021e-02,-3.838070724630086861e-02,-3.786573575236771433e-02,-3.714709038863795582e-02,-3.633129875186957153e-02,-3.553760351850780708e-02,-3.488593413131600707e-02,-3.448289833206173022e-02,-3.440805613570137311e-02,-3.470367196497561868e-02,-3.536994953351784571e-02,-3.636584026649362922e-02,-3.761455912034772364e-02,-3.901270320234823119e-02,-4.044165333698613446e-02,-4.178002828580004019e-02,-4.291645768709803632e-02,-4.376178699916569159e-02,-4.425883126646628501e-02,-4.438763222081323900e-02,-4.416555583970006166e-02,-4.364322991310493755e-02,-4.289818682886543250e-02,-4.202792823741897943e-02,-4.114325620088206403e-02,-4.036168460164692856e-02,-3.979989191657921227e-02,-3.956406895478391944e-02,-3.973826789990681646e-02,-4.037270523771875619e-02,-4.147484466511586199e-02,-4.300544106761784030e-02,-4.488020479224869019e-02,-4.697635772582656188e-02,-4.914284619764304474e-02,-5.121344763421171314e-02,-5.302265678763371654e-02,-5.442375029874664538e-02,-5.530667690581662910e-02,-5.561214687968450698e-02,-5.533894874538913822e-02,-5.454367958583111742e-02,-5.333423148061693791e-02,-5.185909096577769051e-02,-5.029361937642869845e-02,-4.882334712786429165e-02,-4.762438055517601021e-02,-4.684293254761534575e-02,-4.657857890282300628e-02,-4.687590909417034546e-02,-4.772562094463334015e-02,-4.907208224017097636e-02,-5.082325215461038631e-02,-5.286038089986058730e-02,-5.504706871726818690e-02,-5.723861479694988125e-02,-5.929256221381088571e-02,-6.108010082359984633e-02,-6.249664000467700792e-02,-6.346979112978368143e-02,-6.396418139292493754e-02,-6.398360446723905248e-02,-6.357110097987407615e-02,-6.280683424570117357e-02,-6.180285905419584391e-02,-6.069386356663985377e-02,-5.962378915496827081e-02,-5.872960378975978363e-02,-5.812512025165886970e-02,-5.788844289721174069e-02,-5.805533858335035213e-02,-5.861857855402313744e-02,-5.953186100064571107e-02,-6.071672374105634151e-02,-6.207132200007033085e-02,-6.348060929496927851e-02,-6.482796760597026031e-02,-6.600789007780953621e-02,-6.693781255145661579e-02,-6.756643123747536894e-02,-6.787715377849495857e-02,-6.788736299901637627e-02,-6.764512991838569911e-02,-6.722470433256894085e-02,-6.672112653363136692e-02,-6.624326303057351262e-02,-6.590424513991240130e-02,-6.580926677696553873e-02,-6.604248496375991762e-02,-6.665584086349968240e-02,-6.766218665629755713e-02,-6.903381629108990003e-02,-7.070599665740182060e-02,-7.258369683962870300e-02,-7.454935500197169829e-02,-7.647090176618796808e-02,-7.821109984374102764e-02,-7.963929568691879846e-02,-8.064476332449764528e-02,-8.114919580275933852e-02,-8.111597822946932379e-02,-8.055494123809714413e-02,-7.952235007275366974e-02,-7.811659159221104320e-02,-7.647014875848448523e-02,-7.473809196367983687e-02,-7.308329531100571375e-02,-7.165963163901557798e-02,-7.059589475401736869e-02,-6.998351995559080885e-02,-6.986972810299597880e-02,-7.025572373402831639e-02,-7.109842448856530661e-02,-7.231422669265179237e-02,-7.378427855854699513e-02,-7.536208696733052992e-02,-7.688488219097827647e-02,-7.818900674394668737e-02,-7.912735331567367913e-02,-7.958559431517206462e-02,-7.949450598898243070e-02,-7.883702110445213462e-02,-7.764982370270953616e-02,-7.602021871568498401e-02,-7.407904058768842448e-02,-7.198922196705501153e-02,-6.992907064098584369e-02,-6.807104932339883008e-02,-6.655970300007216234e-02,-6.549349875269842858e-02,-6.491390405949819253e-02,-6.480276807709829667e-02,-6.508743063947852736e-02,-6.565168922812601726e-02,-6.634990226495826593e-02,-6.702227249825234989e-02,-6.751118854772847344e-02,-6.767874001866876210e-02,-6.742338323885482820e-02,-6.669195303864283719e-02,-6.548422486880768612e-02,-6.385013583750658028e-02,-6.188211732137680054e-02,-5.970537446416580851e-02,-5.746744827684877044e-02,-5.532627934492319322e-02,-5.343537249665271383e-02,-5.192677305129669851e-02,-5.089558422852904357e-02,-5.039031798435329723e-02,-5.041077979635216755e-02,-5.091190530688614879e-02,-5.181054190713887952e-02,-5.299310194995355411e-02,-5.432376070143461744e-02,-5.565393802365149051e-02,-5.683403462797718964e-02,-5.772751756110088700e-02,-5.822538567166690715e-02,-5.825761820693545895e-02,-5.779902064266402573e-02,-5.686903015359315999e-02,-5.552696076397050512e-02,-5.386513263955393371e-02,-5.200181804603004609e-02,-5.007387622625235346e-02,-4.822691332828642902e-02,-4.660137417645598967e-02,-4.531630380225828980e-02,-4.445512746717458774e-02,-4.405710552343631431e-02,-4.411552691755766392e-02,-4.458160291135360165e-02,-4.537206116006037987e-02,-4.637846672702933964e-02,-4.747721398352846428e-02,-4.854022176759695273e-02,-4.944639124232705352e-02,-5.009281524798488844e-02,-5.040406168898935862e-02,-5.033834434454731444e-02,-4.989024633680889248e-02,-4.909026230481908226e-02,-4.800175665931070978e-02,-4.671581968433350524e-02,-4.534378810053762282e-02,-4.400656179857002914e-02,-4.282079953617211332e-02,-4.188447648651599103e-02,-4.126541891904163262e-02,-4.099506743667985509e-02,-4.106771570265649318e-02,-4.144422361332347760e-02,-4.205852555868262038e-02,-4.282507296856686435e-02,-4.364601561933765389e-02,-4.441824606142413812e-02,-4.504105823061128888e-02,-4.542422824038879620e-02,-4.549519425638114817e-02,-4.520420940291094286e-02,-4.452731824531591664e-02,-4.346778586569374769e-02,-4.205696699231967900e-02,-4.035513924483587200e-02,-3.845111462032207994e-02,-3.645762959828389993e-02,-3.450031384349284969e-02,-3.270197479652259265e-02,-3.116715291613030708e-02,-2.997115351012298243e-02,-2.915467363694196345e-02,-2.872289754881678786e-02,-2.864744126674707153e-02,-2.887009848864422260e-02,-2.930838427545828795e-02,-2.986382605173899807e-02,-3.043364493879536364e-02,-3.092451373800299622e-02,-3.126525866131539544e-02,-3.141542040024008359e-02,-3.136812083086936570e-02,-3.114771649070299450e-02,-3.080451512431493788e-02,-3.040912804658877158e-02,-3.004722369791854031e-02,-2.981315272608575304e-02,-2.980070405821056215e-02,-3.009148838747662674e-02,-3.074355492155204927e-02,-3.178279541978473038e-02,-3.319823745917285795e-02,-3.494102349657906420e-02,-3.692642089428987279e-02,-3.903881836878705935e-02,-4.114080148894665168e-02,-4.308739204327192984e-02,-4.474417646799643683e-02,-4.600501885205065394e-02,-4.680453738297658817e-02,-4.712294794868473330e-02,-4.698390076449848740e-02,-4.644790087590859595e-02,-4.560453387444515089e-02,-4.456591506689654841e-02,-4.346158249489369407e-02,-4.243244566196205381e-02,-4.162074378814266395e-02,-4.115567527651969176e-02,-4.113799856925708098e-02,-4.162785770292454224e-02,-4.263817168884235370e-02,-4.413355184218577948e-02,-4.603353962972735192e-02,-4.821910374565176183e-02,-5.054220585517552738e-02,-5.283887360947901041e-02,-5.494547766585849979e-02,-5.671596874548211209e-02,-5.803661234835991167e-02,-5.883548076676263505e-02,-5.908582606823932493e-02,-5.880432188416374883e-02,-5.804641234533352429e-02,-5.690099246362066709e-02,-5.548501894932766215e-02,-5.393632083598592225e-02,-5.240216229649137525e-02,-5.102357198253591741e-02,-4.991892893976348361e-02,-4.917103631127974633e-02,-4.881986536238868551e-02,-4.886114996425177520e-02,-4.925006923183046503e-02,-4.990863709308685642e-02,-5.073536937875011699e-02,-5.161664224081725927e-02,-5.243948210553742856e-02,-5.310440076613694160e-02,-5.353591659326779190e-02,-5.368911236605264370e-02,-5.355212524718432759e-02,-5.314544550176353993e-02,-5.251906353057097382e-02,-5.174814515286846328e-02,-5.092722005760860066e-02,-5.016212881132273149e-02,-4.955907068083276884e-02,-4.921169737636867797e-02,-4.918906629881076437e-02,-4.952745150544437397e-02,-5.022752869472998233e-02,-5.125653716901775597e-02,-5.255355893426381236e-02,-5.403590439798545281e-02,-5.560593467523616829e-02,-5.715901574972476196e-02,-5.859306523768594704e-02,-5.981869967425387791e-02,-6.076817051179775331e-02,-6.140173643226902456e-02,-6.171090158694590710e-02,-6.171857825088763322e-02,-6.147688480192079613e-02,-6.106350711838659517e-02,-6.057674419084249640e-02,-6.012813744917519521e-02,-5.983156717976637062e-02,-5.978958943955311328e-02,-6.007992671055696621e-02,-6.074528727629740360e-02,-6.178828991168000551e-02,-6.317176522418933848e-02,-6.482365093805390888e-02,-6.664512672746736310e-02,-6.852086251108883974e-02,-7.033099036384592162e-02,-7.196438637901625412e-02,-7.333150120868466015e-02,-7.437384777501675204e-02,-7.506806381175820664e-02,-7.542468700325849484e-02,-7.548367237309966393e-02,-7.530918007920521517e-02,-7.498510835253488493e-02,-7.461087585201052474e-02,-7.429538203994613677e-02,-7.414729478414265607e-02,-7.426202906116050051e-02,-7.470817156185825814e-02,-7.551669690318262018e-02,-7.667522183325556351e-02,-7.812793234713368007e-02,-7.978031057039204621e-02,-8.150693417232202087e-02,-8.316104126836026955e-02,-8.458583257693078061e-02,-8.562798833304968715e-02,-8.615263787814847474e-02,-8.605751148251672422e-02,-8.528414038404391606e-02,-8.382511511283458061e-02,-8.172699007315949171e-02,-7.908857353027765047e-02,-7.605477935439614035e-02,-7.280663671100316703e-02,-6.954796596116494256e-02,-6.648905360466179915e-02,-6.382825322206286955e-02,-6.173366326944730587e-02,-6.032751044150416742e-02,-5.967493921411870517e-02,-5.977773301769903624e-02,-6.057308333691890229e-02,-6.193751964743378358e-02,-6.369630291806932521e-02,-6.563898379128625671e-02,-6.754120439356250949e-02,-6.919028546168028149e-02,-7.040958115758515212e-02,-7.107663488634569093e-02,-7.113272178907911747e-02,-7.058417562681575108e-02,-6.949742483454715569e-02,-6.798986892766278878e-02,-6.621796537685827044e-02,-6.436265772686783349e-02,-6.261178475854796421e-02,-6.114017064557564218e-02,-6.008974240443063636e-02,-5.955294969849698333e-02,-5.956274021459823792e-02,-6.009122377180238506e-02,-6.105666652975160619e-02,-6.233590081378539982e-02,-6.377899915822179966e-02,-6.522503778330196456e-02,-6.651884956122922077e-02,-6.752739073745868403e-02,-6.815301828962182229e-02,-6.834152407887998659e-02,-6.808438951124848315e-02,-6.741622079830637826e-02,-6.640916444656982942e-02,-6.516578598349427598e-02,-6.381057420904560906e-02,-6.247910139598478879e-02,-6.130429765017084143e-02,-6.040118302117519766e-02,-5.985277419258605569e-02,-5.969945523224192557e-02,-5.993271396798690448e-02,-6.049303175567272151e-02,-6.127146731532893270e-02,-6.211505279505008525e-02,-6.283673065676483038e-02,-6.323044283240655816e-02,-6.309078908139213737e-02,-6.223461527518816400e-02,-6.052056019560354133e-02,-5.786331992274427322e-02,-5.424118041780740668e-02,-4.969685143594249760e-02,-4.433282614772127844e-02,-3.830318724413122461e-02,-3.180320373882146445e-02,-2.505679050236876010e-02,-1.830169710867270150e-02,-1.177328918894604039e-02,-5.688296544325345018e-03,-2.297216755165854094e-04,4.465509034864325287e-03,8.314105782292646046e-03,1.128810612495982635e-02,1.341158159475791881e-02,1.475430531061175561e-02,1.542360812019258863e-02,1.555449163429133488e-02,1.529818509537719286e-02,1.481031026669695286e-02,1.424012982060089000e-02,1.372183521510408379e-02,1.336820783159125246e-02,1.326651360027521036e-02,1.347623077980843707e-02,1.402846493339885044e-02,1.492751638626364612e-02,1.615493575121931466e-02,1.767517368819237003e-02,1.944124825493431102e-02,2.139968783639472141e-02,2.349492067636973699e-02,2.567337337776768799e-02,2.788767189988009335e-02,3.010159569070541483e-02,3.229566842870652821e-02,3.447142145578829114e-02,3.665144228105657320e-02,3.887401865560319997e-02,4.118412758186631301e-02,4.362379470435787110e-02,4.622379223608501231e-02,4.899685365865553976e-02,5.193151704735204932e-02,5.498595646717329560e-02,5.808263751067829078e-02,6.110633462291586993e-02,6.390841435372619783e-02,6.631853657270680991e-02,6.816227347035254402e-02,6.928198055667617039e-02,6.955917386836781013e-02,6.893754303286245277e-02,6.744459046419631898e-02,6.520721504463501683e-02,6.245440252655971858e-02,5.950069631456000180e-02,5.670862353800647238e-02,5.443556013657391279e-02,5.297657620385672061e-02,5.251613434395620977e-02,5.309817812028023998e-02,5.461841251034532663e-02,5.683723534198598798e-02,5.940907197841730630e-02,6.192357290863959723e-02,6.395440276392819201e-02,6.511119477660265442e-02,6.508947041097941366e-02,6.371206980892005212e-02,6.095475402892840122e-02,5.694963101801472222e-02,5.196440888072254710e-02,4.636221304611395921e-02,4.055165719865727603e-02,3.493708899002741231e-02,2.987577032780161512e-02,2.564534101117058734e-02,2.242278866595899534e-02,2.027468073164534479e-02,1.915717534417457971e-02,1.892417214049211052e-02,1.934264560728394394e-02,2.011417919137663962e-02,2.090123004125377798e-02,2.135719295397955214e-02,2.115992276584039225e-02,2.004626938096681216e-02,1.784108271857676870e-02,1.447320396243493255e-02,9.975964255072636983e-03,4.476290736884895941e-03,-1.821387367017010366e-03,-8.652917612011219034e-03,-1.571364482835647947e-02,-2.268009488316312036e-02,-2.923479880338663087e-02,-3.509344292963766099e-02,-4.003084829523147897e-02,-4.390020607139995951e-02,-4.664111479430672891e-02,-4.827581937414847368e-02,-4.889656045910571736e-02,-4.864818438822136881e-02,-4.770959732258454877e-02,-4.627630378557686525e-02,-4.454466701259469918e-02,-4.269765887032846152e-02,-4.089259898876403815e-02,-3.925227353851035161e-02,-3.785997161903448954e-02,-3.675742603534146169e-02,-3.594456428041280932e-02,-3.538127038130293306e-02,-3.499235735306645279e-02,-3.467677032970027662e-02,-3.432124114618277655e-02,-3.381779409250167817e-02,-3.308318274915928586e-02,-3.207656251286712668e-02,-3.081112996798212461e-02,-2.935722040131443292e-02,-2.783733852860377847e-02,-2.641559099750236117e-02,-2.528388629671973406e-02,-2.464573077943898322e-02,-2.469693531636426437e-02,-2.560279663372347012e-02,-2.747396911419150087e-02,-3.034578461232416771e-02,-3.416520290015912648e-02,-3.878698080424900635e-02,-4.397912300314350126e-02,-4.943738325582037324e-02,-5.480783110972484162e-02,-5.971502854047544551e-02,-6.379196531664825531e-02,-6.670700622915168299e-02,-6.818287924979568593e-02,-6.800367838509231710e-02,-6.600812468841267544e-02,-6.206995151111215081e-02,-5.606894022254241966e-02,-4.785960763996095074e-02,-3.724714283266025716e-02,-2.397810426577732731e-02,-7.746930791834323766e-03,1.178564994667932742e-02,3.496566960118903389e-02,6.211085992306226988e-02,9.346794139941343171e-02,1.291658193657379827e-01,1.691709648264781152e-01,2.132515789846078647e-01,2.609549912653097992e-01,3.115991798877883467e-01,3.642767641824971037e-01,4.178702739033205438e-01,4.710800578719575027e-01,5.224677731346714094e-01,5.705175566622376904e-01,6.137149999097775144e-01,6.506409405066785334e-01,6.800720322094069292e-01,7.010754261088522066e-01,7.130836137841453093e-01,0.000000000000000000e+00,0.000000000000000000e+00,0.000000000000000000e+00,0.000000000000000000e+00,0.000000000000000000e+00,0.000000000000000000e+00,0.000000000000000000e+00,0.000000000000000000e+00,0.000000000000000000e+00,0.000000000000000000e+00,0.000000000000000000e+00,0.000000000000000000e+00,0.000000000000000000e+00,0.000000000000000000e+00,0.000000000000000000e+00,0.000000000000000000e+00,0.000000000000000000e+00,0.000000000000000000e+00,0.000000000000000000e+00,0.000000000000000000e+00,0.000000000000000000e+00,0.000000000000000000e+00,0.000000000000000000e+00,0.000000000000000000e+00,0.000000000000000000e+00,0.000000000000000000e+00,0.000000000000000000e+00,0.000000000000000000e+00,0.000000000000000000e+00,0.000000000000000000e+00,0.000000000000000000e+00,0.000000000000000000e+00,0.000000000000000000e+00,0.000000000000000000e+00,0.000000000000000000e+00,0.000000000000000000e+00,0.000000000000000000e+00,0.000000000000000000e+00,0.000000000000000000e+00,0.000000000000000000e+00,0.000000000000000000e+00,0.000000000000000000e+00,0.000000000000000000e+00,0.000000000000000000e+00,0.000000000000000000e+00,0.000000000000000000e+00,0.000000000000000000e+00,0.000000000000000000e+00,0.000000000000000000e+00,0.000000000000000000e+00,0.000000000000000000e+00,0.000000000000000000e+00,0.000000000000000000e+00,0.000000000000000000e+00,0.000000000000000000e+00,0.000000000000000000e+00,0.000000000000000000e+00,0.000000000000000000e+00,0.000000000000000000e+00,0.000000000000000000e+00,0.000000000000000000e+00,0.000000000000000000e+00,0.000000000000000000e+00,0.000000000000000000e+00,0.000000000000000000e+00,0.000000000000000000e+00,0.000000000000000000e+00,0.000000000000000000e+00,0.000000000000000000e+00,0.000000000000000000e+00,0.000000000000000000e+00,0.000000000000000000e+00,0.000000000000000000e+00,0.000000000000000000e+00,0.000000000000000000e+00,0.000000000000000000e+00,0.000000000000000000e+00,0.000000000000000000e+00,0.000000000000000000e+00,0.000000000000000000e+00,0.000000000000000000e+00,0.000000000000000000e+00,0.000000000000000000e+00,0.000000000000000000e+00,0.000000000000000000e+00,0.000000000000000000e+00,0.000000000000000000e+00,0.000000000000000000e+00,0.000000000000000000e+00,0.000000000000000000e+00,0.000000000000000000e+00,0.000000000000000000e+00,0.000000000000000000e+00,0.000000000000000000e+00,0.000000000000000000e+00,0.000000000000000000e+00,0.000000000000000000e+00,0.000000000000000000e+00,0.000000000000000000e+00,0.000000000000000000e+00,0.000000000000000000e+00,0.000000000000000000e+00,0.000000000000000000e+00,0.000000000000000000e+00,0.000000000000000000e+00
