-3.652594716925903762e-01,-3.604840528977810155e-01,-3.506762279876822763e-01,-3.364656755144562750e-01,-3.185788337741748966e-01,-2.978222385602916078e-01,-2.750594364507090717e-01,-2.511761305964190782e-01,-2.270343497228913821e-01,-2.034230001247780695e-01,-1.810146710005053061e-01,-1.603360776856315173e-01,-1.417546373822750061e-01,-1.254795419687316227e-01,-1.115738299535437572e-01,-9.997422672002721777e-02,-9.051656457438329861e-02,-8.296488400013653230e-02,-7.704169257786677716e-02,-7.245629760742230974e-02,-6.892851123771234767e-02,-6.620643604567545693e-02,-6.407844835291161278e-02,-6.237978280801793896e-02,-6.099371438443355886e-02,-5.984747247856695568e-02,-5.890382785795961890e-02,-5.815009884035989007e-02,-5.758676147372893128e-02,-5.721765211182063687e-02,-5.704286216426741885e-02,-5.705440464828837738e-02,-5.723412598092372100e-02,-5.755316838411762143e-02,-5.797246410716028892e-02,-5.844423795727222981e-02,-5.891493327916914879e-02,-5.932972339319152882e-02,-5.963789401306900800e-02,-5.979777387368272190e-02,-5.978011784547134638e-02,-5.956960709362543044e-02,-5.916479643661586019e-02,-5.857702314298676022e-02,-5.782854960460285382e-02,-5.694995196352347494e-02,-5.597682761895747539e-02,-5.494622671210485504e-02,-5.389345791068067548e-02,-5.284966451250318331e-02,-5.183992010753398633e-02,-5.088136561228494975e-02,-4.998144806379357236e-02,-4.913688973368970231e-02,-4.833403149957062050e-02,-4.755081894945773630e-02,-4.676015647838371869e-02,-4.593396474270450280e-02,-4.504735472980325728e-02,-4.408249400965600501e-02,-4.303162932032722487e-02,-4.189876370149251544e-02,-4.069984259734522880e-02,-3.946152057366038302e-02,-3.821863028668216755e-02,-3.701082845289913742e-02,-3.587934915544187947e-02,-3.486450369619644579e-02,-3.400355697936795901e-02,-3.332815301745494646e-02,-3.286115995403592061e-02,-3.261354458968775821e-02,-3.258185596850639992e-02,-3.274691304210174819e-02,-3.307478723515118457e-02,-3.352098045781084362e-02,-3.403711265633353744e-02,-3.457786573042577472e-02,-3.510609827624536911e-02,-3.559545368030921086e-02,-3.603083735874923477e-02,-3.640747355856278900e-02,-3.672930552133253645e-02,-3.700735117151104231e-02,-3.725816869779234597e-02,-3.750209318868610864e-02,-3.776089134210541126e-02,-3.805487714141399247e-02,-3.839978879958196728e-02,-3.880384571232291246e-02,-3.926567835282732122e-02,-3.977399576243580842e-02,-4.030941961294258469e-02,-4.084785793730003750e-02,-4.136397491632200218e-02,-4.183368394639452870e-02,-4.223569018043262652e-02,-4.255272493370905462e-02,-4.277292550570317708e-02,-4.289110572790105075e-02,-4.290905169317900392e-02,-4.283436311977411454e-02,-4.267843527722891411e-02,-4.245451335463374526e-02,-4.217619023063196027e-02,-4.185640999421425673e-02,-4.150725437978493304e-02,-4.114067321167416691e-02,-4.076951725770705526e-02,-4.040766761856111333e-02,-4.006871323603787560e-02,-3.976390237230949948e-02,-3.950054476973080542e-02,-3.928140541554923232e-02,-3.910480847040914698e-02,-3.896491992241792046e-02,-3.885204949173842737e-02,-3.875328031286248004e-02,-3.865375779489483438e-02,-3.853859520344125184e-02,-3.839502791334701431e-02,-3.821429020647344049e-02,-3.799261732864517294e-02,-3.773101622643942887e-02,-3.743396563364433799e-02,-3.710754058528700772e-02,-3.675760243065340910e-02,-3.638871443863999494e-02,-3.600394312553441278e-02,-3.560494952171653488e-02,-3.519170190186298591e-02,-3.476189228791437547e-02,-3.431080163341990868e-02,-3.383212557959152517e-02,-3.331947761198496977e-02,-3.276789743113444481e-02,-3.217500013149956345e-02,-3.154194422288778693e-02,-3.087450344043972394e-02,-3.018395538671408279e-02,-2.948714695035159830e-02,-2.880571084152355396e-02,-2.816503289086075626e-02,-2.759324194897291860e-02,-2.711982832888694406e-02,-2.677336878702235926e-02,-2.657827139963124877e-02,-2.655096053333981521e-02,-2.669616186828444038e-02,-2.700404057589437384e-02,-2.744888422460162528e-02,-2.798955805647023939e-02,-2.857136598244047407e-02,-2.912869812731603766e-02,-2.958799704516283657e-02,-2.987112403154598694e-02,-2.989988853932577101e-02,-2.960251940745580596e-02,-2.892189842548737941e-02,-2.782432013002135093e-02,-2.630729097862359936e-02,-2.440506587286394788e-02,-2.219051109956423837e-02,-1.977190972837047228e-02,-1.728423323745609252e-02,-1.487584834678996361e-02,-1.269279324372005711e-02,-1.086324227766763580e-02,-9.484427678280556856e-03,-8.613264188827697218e-03,-8.260871668274665999e-03,-8.390818509708934322e-03,-8.921590027883310320e-03,-9.734882008542732751e-03,-1.069080704874270614e-02,-1.164770455543115944e-02,-1.248047796767011268e-02,-1.309177801797412576e-02,-1.341518575624341125e-02,-1.341378040130880404e-02,-1.307751540141743191e-02,-1.242041224235818954e-02,-1.147699353282242291e-02,-1.029749565054675388e-02,-8.942209057471584358e-03,-7.475736198802112112e-03,-5.961680683450342778e-03,-4.457743730979998875e-03,-3.011161987856264283e-03,-1.654866917268208283e-03,-4.050187960632954057e-04,7.395064364312969353e-04,1.795363091276599467e-03,2.790955078347410502e-03,3.761534232857610769e-03,4.744377355785302404e-03,5.775017999056681478e-03,6.884790128629643402e-03,8.099030487234024078e-03,9.435080150769749319e-03,1.090001062378664377e-02,1.248877808890813158e-02,1.418363036102847363e-02,1.595542315766690367e-02,1.776711005522223219e-02,1.957883761628291183e-02,2.135334852843926226e-02,2.306039262776691731e-02,2.467932839074329227e-02,2.619965653211125609e-02,2.761980551001356338e-02,2.894497157046247576e-02,3.018500863733494452e-02,3.135314637337389271e-02,3.246562900956800196e-02,3.354157096258116727e-02,3.460210186985084729e-02,3.566830944190094860e-02,3.675817485534920576e-02,3.788351060708716050e-02,3.904839649910098187e-02,4.024995818128806330e-02,4.148100368269624222e-02,4.273332034964603260e-02,4.400056654048185162e-02,4.528010067991478788e-02,4.657352624578259964e-02,4.788623057846903147e-02,4.922658704693361892e-02,5.060532228174038222e-02,5.203490146607651912e-02,5.352852294093105728e-02,5.509872450259992172e-02,5.675590723988193503e-02,5.850683180974584202e-02,6.035295363455447232e-02,6.228892314971132271e-02,6.430213676048382454e-02,6.637404393899243304e-02,6.848315454307665751e-02,7.060888865337741627e-02,7.273477705126343840e-02,7.484953791813776791e-02,7.694564789837370078e-02,7.901643219387947947e-02,8.105321121349971791e-02,8.304360808572677777e-02,8.497156946459709370e-02,8.681922860564553202e-02,8.857004390623056389e-02,9.021198419339936103e-02,9.173983498880901311e-02,9.315668521372784394e-02,9.447494586555346685e-02,9.571664002197975696e-02,9.691237119287622603e-02,9.809881737009017166e-02,9.931501500336885335e-02,1.005976943768843307e-01,1.019761562972336943e-01,1.034678329074787267e-01,1.050758630776071900e-01,1.067892152725665733e-01,1.085848823195184887e-01,1.104313231409851381e-01,1.122923516101801689e-01,1.141305418921843839e-01,1.159094010487088378e-01,1.175944335451065553e-01,1.191538980644495788e-01,1.205598256352625186e-01,1.217892819078771477e-01,1.228255155745072574e-01,1.236586193878405626e-01,1.242855928196370530e-01,1.247099728690981568e-01,1.249412290997244518e-01,1.249939809822897402e-01,1.248870047661355953e-01,1.246420410935029782e-01,1.242824642741030827e-01,1.238317845948946200e-01,1.233118928174917472e-01,1.227411827450044096e-01,1.221329793410468878e-01,1.214945482190849801e-01,1.208265730276758543e-01,1.201230560254371998e-01,1.193718954226102719e-01,1.185562227558580040e-01,1.176562367246109797e-01,1.166512703855271393e-01,1.155219865935779022e-01,1.142527006860645095e-01,1.128337966307584456e-01,1.112638639942004765e-01,1.095507440743636596e-01,1.077106844413845965e-01,1.057655139020521745e-01,1.037387521539562818e-01,1.016521185371256492e-01,9.952366962374036008e-02,9.736792763212159807e-02,9.519721418374321731e-02,9.302270141265162051e-02,9.085403777137401882e-02,8.869739387798594721e-02,8.655265421805725945e-02,8.441102308655056008e-02,8.225431776429545372e-02,8.005653438274167033e-02,7.778734943124647472e-02,7.541668401825774026e-02,7.291946915901204029e-02,7.028000072075470117e-02,6.749542705993917535e-02,6.457790759943608794e-02,6.155479524324828505e-02,5.846619089311559658e-02,5.536007547732058054e-02,5.228646891386309198e-02,4.929237065088301617e-02,4.641839260527808042e-02,4.369689326818670949e-02,4.115087536025956866e-02,3.879314698313719723e-02,3.662584330295873269e-02,3.464083058070993593e-02,3.282152479652719612e-02,3.114606544093515353e-02,2.959086802896183574e-02,2.813327016952611725e-02,2.675263897726988874e-02,2.543025546898095013e-02,2.414883080968786497e-02,2.289237798057456794e-02,2.164658567076466547e-02,2.039938811042111069e-02,1.914144829764526101e-02,1.786661089244245479e-02,1.657247085331697845e-02,1.526083885878570107e-02,1.393770093573729572e-02,1.261259871516957724e-02,1.129768785287712032e-02,1.000674038277785116e-02,8.754193697898926541e-03,7.554255432183134070e-03,6.420096398068948600e-03,5.363103014055556339e-03,4.392142734034402626e-03,3.513139253240107895e-03,2.729517030465793831e-03,2.043510844869731585e-03,1.457317967265577604e-03,9.729162233167993994e-04,5.904738788301907996e-04,3.063155049754849677e-04,1.112238773943767457e-04,-1.086643782187250717e-05,-8.382652891892095645e-05,-1.395724531800934657e-04,-2.170535948689127385e-04,-3.597872148727303699e-04,-6.123272528806163705e-04,-1.016508649287467926e-03,-1.608186917222821297e-03,-2.414527643006065573e-03,-3.451480571349971500e-03,-4.721429593971935949e-03,-6.211606016750231135e-03,-7.893938979488236696e-03,-9.726551289090595159e-03,-1.165658532666625190e-02,-1.362388232706984205e-02,-1.556517598186544019e-02,-1.741850872975524503e-02,-1.912738836482719834e-02,-2.064412836618454219e-02,-2.193221547144339270e-02,-2.296812040839522548e-02,-2.374299662059034532e-02,-2.426411082435445121e-02,-2.455530963077806952e-02,-2.465574376470235085e-02,-2.461637906863902228e-02,-2.449456394561505546e-02,-2.434779307764544515e-02,-2.422805475082301721e-02,-2.417762951688926659e-02,-2.422660035373709608e-02,-2.439202429475753262e-02,-2.467836979443670253e-02,-2.507855323826346447e-02,-2.557534794111422302e-02,-2.614360791313414395e-02,-2.675355555090074347e-02,-2.737466078179180348e-02,-2.797935897654426143e-02,-2.854590984900732056e-02,-2.905979890598796647e-02,-2.951359220736374592e-02,-2.990591991416180484e-02,-3.024045422291930796e-02,-3.052524162145749120e-02,-3.077221736700401847e-02,-3.099656584407702725e-02,-3.121565818784041713e-02,-3.144746040037870588e-02,-3.170862238876228506e-02,-3.201271549356402013e-02,-3.236885142264771947e-02,-3.278046395335787455e-02,-3.324408638956041079e-02,-3.374835223360961312e-02,-3.427349317682122642e-02,-3.479156048997915363e-02,-3.526802538939113191e-02,-3.566553148972309573e-02,-3.594939801146474628e-02,-3.609306223111157647e-02,-3.608175506100428503e-02,-3.591404440522854430e-02,-3.560177797599211463e-02,-3.516879148872659178e-02,-3.464835615157475790e-02,-3.407947754218237923e-02,-3.350251680614808880e-02,-3.295467103128322389e-02,-3.246590192811690118e-02,-3.205610479243306554e-02,-3.173404308897748161e-02,-3.149775174846612680e-02,-3.133568109868829776e-02,-3.122826647989698085e-02,-3.115009671802234509e-02,-3.107276023092890929e-02,-3.096813516573577313e-02,-3.081177207315862962e-02,-3.058592903393731605e-02,-3.028175329175038927e-02,-2.990027181394720734e-02,-2.945214181683377883e-02,-2.895639347033101066e-02,-2.843860339304374665e-02,-2.792880173175122174e-02,-2.745903502133391003e-02,-2.706040955317848967e-02,-2.675977125216173411e-02,-2.657659621064002720e-02,-2.652077401771946175e-02,-2.659160342507570218e-02,-2.677778680594347996e-02,-2.705803563527256483e-02,-2.740213487975210610e-02,-2.777249587189603575e-02,-2.812632245530661060e-02,-2.841881219120235419e-02,-2.860773327127767371e-02,-2.865867566973209421e-02,-2.854927187747804962e-02,-2.827097423007141758e-02,-2.782825558890670778e-02,-2.723624185859691016e-02,-2.651811767045132717e-02,-2.570308337266818954e-02,-2.482465574949397139e-02,-2.391854187053328237e-02,-2.301961494992580196e-02,-2.215840303492157271e-02,-2.135820485507039165e-02,-2.063373207542401264e-02,-1.999124150913366912e-02,-1.942942927636899519e-02,-1.894042800476796601e-02,-1.851081021300182011e-02,-1.812290718171359616e-02,-1.775662311594351436e-02,-1.739155930624342733e-02,-1.700911358893136480e-02,-1.659433743185339052e-02,-1.613746303565138582e-02,-1.563500824891576879e-02,-1.509032762738291532e-02,-1.451340105551640440e-02,-1.391957272071354945e-02,-1.332718368513812618e-02,-1.275451825131424140e-02,-1.221677874278315201e-02,-1.172384906909612265e-02,-1.127940421614195138e-02,-1.088142485377979404e-02,-1.052381293767043653e-02,-1.019871373960737349e-02,-9.898875194642709624e-03,-9.619226814332410350e-03,-9.357460507529467841e-03,-9.114124843463239714e-03,-8.892731145135609333e-03,-8.699928479088564828e-03,-8.545645658169313472e-03,-8.443166189885196321e-03,-8.408946393077692399e-03,-8.461648760904064148e-03,-8.619762772978158474e-03,-8.897660874570202660e-03,-9.300979178867668090e-03,-9.823048659073522343e-03,-1.044377369691000534e-02,-1.113115955851237161e-02,-1.184488025198844260e-02,-1.254122568306681104e-02,-1.317866813158452902e-02,-1.372275782246962228e-02,-1.414890525131455579e-02,-1.444251200679130820e-02,-1.459721882316532965e-02,-1.461262843918276211e-02,-1.449250616397605891e-02,-1.424384052282298002e-02,-1.387688575056239548e-02,-1.340624253373554411e-02,-1.285259576141210315e-02,-1.224400615421295142e-02,-1.161550159368247848e-02,-1.100663009127060207e-02,-1.045780350693739820e-02,-1.000639345794274160e-02,-9.682841478607701405e-03,-9.506914790643522864e-03,-9.484949582758491968e-03,-9.609343872236908793e-03,-9.860915282362100326e-03,-1.021347082768227568e-02,-1.063905180228410033e-02,-1.111225078280659619e-02,-1.161251363951045293e-02,-1.212425380900040983e-02,-1.263557314517228976e-02,-1.313668079810467390e-02,-1.361867141001072042e-02,-1.407284039813482858e-02,-1.449046437772375136e-02,-1.486295410247412407e-02,-1.518243690918937884e-02,-1.544269206635928704e-02,-1.563989487664651373e-02,-1.577257731829000489e-02,-1.584083855697599255e-02,-1.584542323199554514e-02,-1.578724086193843135e-02,-1.566740585401847977e-02,-1.548742077131682986e-02,-1.524907264984311749e-02,-1.495409749311463372e-02,-1.460419898727716159e-02,-1.420183861982553600e-02,-1.375155479517160655e-02,-1.326120205625389362e-02,-1.274257240862498863e-02,-1.221121460765600686e-02,-1.168575630349717384e-02,-1.118713139595346566e-02,-1.073768986098568891e-02,-1.035990799105614146e-02,-1.007463143362569320e-02,-9.899063126877188923e-03,-9.844791557230711532e-03,-9.916106304310445818e-03,-1.010881292078575321e-02,-1.040979969955739895e-02,-1.079751011845962901e-02,-1.124322233394078885e-02,-1.171308492137103884e-02,-1.217112415347501586e-02,-1.258323165030086725e-02,-1.292149634288512587e-02,-1.316783934426824128e-02,-1.331591220158538300e-02,-1.337048502544581352e-02,-1.334436985577747668e-02,-1.325431582719572600e-02,-1.311808178433624718e-02,-1.295383876904769409e-02,-1.278096200354209531e-02,-1.262027756355791654e-02,-1.249270465404701651e-02,-1.241663223554402562e-02,-1.240501880518969126e-02,-1.246316124398982872e-02,-1.258763740762248312e-02,-1.276630814057455078e-02,-1.297899927598820079e-02,-1.319872283749961780e-02,-1.339361415608475263e-02,-1.352975539088150693e-02,-1.357464582017708227e-02,-1.350073131179765386e-02,-1.328856553968355003e-02,-1.292944335598697654e-02,-1.242720547583078990e-02,-1.179869808994527675e-02,-1.107255977025069921e-02,-1.028635855272486306e-02,-9.482371119468726434e-03,-8.702774161579352255e-03,-7.985487337975005068e-03,-7.361500504042538598e-03,-6.853401108682813901e-03,-6.474315759031974878e-03,-6.226968706293705205e-03,-6.103078630472849771e-03,-6.083376555625244313e-03,-6.138545167508655843e-03,-6.231543551700370262e-03,-6.321664938502977865e-03,-6.369943873096986509e-03,-6.344686254267034066e-03,-6.225730174813534808e-03,-6.006500759314117345e-03,-5.693437402078035774e-03,-5.302923699510895574e-03,-4.856706663729578807e-03,-4.377475610332203643e-03,-3.885858881885593478e-03,-3.398878002958061455e-03,-2.929263747257741021e-03,-2.485323744360459775e-03,-2.071339047375646975e-03,-1.688373546437834825e-03,-1.335280572120035262e-03,-1.009782971046518886e-03,-7.096938145899894931e-04,-4.343494581589171614e-04,-1.858914886062049067e-04,3.042975132153907076e-05,2.074737773052821356e-04,3.384407811088721552e-04,4.188171393494203340e-04,4.471629038328477296e-04,4.249911623043612459e-04,3.565720503874466978e-04,2.492393367219398310e-04,1.141271326382612685e-04,-3.331458681641277688e-05,-1.737694445432106695e-04,-2.857481895447459494e-04,-3.480871169736392333e-04,-3.423168815431410633e-04,-2.541416150021694078e-04,-7.395570800807330406e-05,2.031515087608874704e-04,5.774952738133070154e-04,1.045038461023583111e-03,1.598046637703297822e-03,2.226065045317533308e-03,2.916832886936174523e-03,3.657052653324337817e-03,4.433181204048031523e-03,5.232119129206351700e-03,6.041425325187639410e-03,6.848936146220102779e-03,7.642005833232937834e-03,8.406656506379797666e-03,9.127102616597691093e-03,9.786379992964848798e-03,1.036838887158588081e-02,1.086063670087388834e-02,1.125643719346835873e-02,1.155569972561790171e-02,1.176427577486105665e-02,1.189261894764454680e-02,1.195464678366951056e-02,1.196689565451623458e-02,1.194732378234921247e-02,1.191351849010441853e-02,1.188095629952623175e-02,1.186194106976409639e-02,1.186497265202826092e-02,1.189395346563247406e-02,1.194728996653451544e-02,1.201756561911099946e-02,1.209234581949435693e-02,1.215616802609853497e-02,1.219323409443907533e-02,1.218994125058204224e-02,1.213664563989275656e-02,1.202901284737238272e-02,1.186975909750679313e-02,1.167056819543824640e-02,1.145278564084168706e-02,1.124589359779904103e-02,1.108418481348845928e-02,1.100282405991667538e-02,1.103416880580566049e-02,1.120448331485400344e-02,1.153084412015410905e-02,1.201832953730799097e-02,1.265802163490582603e-02,1.342642484807684417e-02,1.428658765414513553e-02,1.519082603304557251e-02,1.608473922664822864e-02,1.691215427998451343e-02,1.762062307547337947e-02,1.816682886666487126e-02,1.852074635077363696e-02,1.866752997894237723e-02,1.860713895232260495e-02,1.835248369841087704e-02,1.792692336184272678e-02,1.736187851284467717e-02,1.669504132481010664e-02,1.596888901050215470e-02,1.522880907899930303e-02,1.452076648465536364e-02,1.388916309979553593e-02,1.337518445449638847e-02,1.301493067669339324e-02,1.283661849969982595e-02,1.285734607388945919e-02,1.308056762919215278e-02,1.349479165298067725e-02,1.407345376717442260e-02,1.477609062899224238e-02,1.555097095050858753e-02,1.633899525299646605e-02,1.707857807783639409e-02,1.771119506224582557e-02,1.818686098748550570e-02,1.846853865199187331e-02,1.853489371057450916e-02,1.838140759214586251e-02,1.802004561978238356e-02,1.747764138569031511e-02,1.679330992547845708e-02,1.601533246485649375e-02,1.519768370795581726e-02,1.439616453262174481e-02,1.366448046822096342e-02,1.305091910224856488e-02,1.259591129684019609e-02,1.233029884185226493e-02,1.227416698388551428e-02,1.243629289543631868e-02,1.281424440545952774e-02,1.339526900630116750e-02,1.415832295463004785e-02,1.507710594862679554e-02,1.612300490066963937e-02,1.726673800390541788e-02,1.847838652998174194e-02,1.972635895461759270e-02,2.097610141921385854e-02,2.218925515860059247e-02,2.332382801775239461e-02,2.433578439017363218e-02,2.518195206933487168e-02,2.582353364316684885e-02,2.622938318217154022e-02,2.637853093188231510e-02,2.626186272626013576e-02,2.588322043113926510e-02,2.526019494796279130e-02,2.442436681587053030e-02,2.342020888529609823e-02,2.230204424943085448e-02,2.112942875101563381e-02,1.996227469615712360e-02,1.885704796452785520e-02,1.786444436028573890e-02,1.702783164157258347e-02,1.638131145736557159e-02,1.594702021137893097e-02,1.573256985605523545e-02,1.572987180094512563e-02,1.591577580013870188e-02,1.625417797073990672e-02,1.669921895698470160e-02,1.719958721814376576e-02,1.770400726432153071e-02,1.816720727015719988e-02,1.855473032599517028e-02,1.884522811848835661e-02,1.903026928921686817e-02,1.911264853446844811e-02,1.910392237179108985e-02,1.902142352064150471e-02,1.888519949284795871e-02,1.871553580217313190e-02,1.853134819025806235e-02,1.834925657044398153e-02,1.818310182392438717e-02,1.804390841107900503e-02,1.794030061570470527e-02,1.787900470960041358e-02,1.786502591779583204e-02,1.790157625617248144e-02,1.798996623272473838e-02,1.812929412354220143e-02,1.831567330183598089e-02,1.854111510193661230e-02,1.879261901853145067e-02,1.905224824641221087e-02,1.929866236729668033e-02,1.950970839082031422e-02,1.966508404777111627e-02,1.974842999882410119e-02,1.974885414817912493e-02,1.966196313586174652e-02,1.949006534575515454e-02,1.924110314674574995e-02,1.892655092507035397e-02,1.855934286286023416e-02,1.815275662819222646e-02,1.772022139452648914e-02,1.727536208608206059e-02,1.683156045118356856e-02,1.640070754303377815e-02,1.599166869942706889e-02,1.560961473592177400e-02,1.525681399093437723e-02,1.493422745363991860e-02,1.464275588621954949e-02,1.438361062681206386e-02,1.415806327919340822e-02,1.396700389301808003e-02,1.381047953935260128e-02,1.368716451110142500e-02,1.359379788844000507e-02,1.352504226289428721e-02,1.347439362265483165e-02,1.343602862694128451e-02,1.340641614139822038e-02,1.338453149317936006e-02,1.337067651149890894e-02,1.336485451030346855e-02,1.336554139870258125e-02,1.336917210131600975e-02,1.337049311092811978e-02,1.336382777103851081e-02,1.334486659870801929e-02,1.331225531769118786e-02,1.326838140382389543e-02,1.321907415723491686e-02,1.317212965894741170e-02,1.313484512413792479e-02,1.311140237861866363e-02,1.310142547444798945e-02,1.310039917769489047e-02,1.310137958609706825e-02,1.309700736304144145e-02,1.308130680330097523e-02,1.305104630128288597e-02,1.300627827691744169e-02,1.294976157009941967e-02,1.288557296849885542e-02,1.281761561337239376e-02,1.274844024031819914e-02,1.267838506621907918e-02,1.260503373056157984e-02,1.252314202500142207e-02,1.242517121551030626e-02,1.230237151343254419e-02,1.214608648085462039e-02,1.194879066618437582e-02,1.170461058668700004e-02,1.140965244007264949e-02,1.106270530536596942e-02,1.066641263205453209e-02,1.022836178316675719e-02,9.761428314109745971e-03,9.283140218986137004e-03,8.814309279135318365e-03,8.377334836855536426e-03,7.994511870639427892e-03,7.686551657205182436e-03,7.471255286934892076e-03,7.362025356032982949e-03,7.366134497756796594e-03,7.483230905184633415e-03,7.704730344988771837e-03,8.014336552009698744e-03,8.389433038798571954e-03,8.803014778478749844e-03,9.226104820043875415e-03,9.630538444161869729e-03,9.991495984100744882e-03,1.028911707385016597e-02,1.050920198029186604e-02,1.064352987426875168e-02,1.069013622087482997e-02,1.065336189118618222e-02,1.054327713780681131e-02,1.037440910255421449e-02,1.016403861058050133e-02,9.930112018033156185e-03,9.688405798994404253e-03,9.448955198482844944e-03,9.212889317138515249e-03,8.971320885143352353e-03,8.707106357043942202e-03,8.399076289720317293e-03,8.027620220759318012e-03,7.580181109258571012e-03,7.055159503252910781e-03,6.463186258103528238e-03,5.825586426414112139e-03,5.170609773698293422e-03,4.528568883992866931e-03,3.927513268692869701e-03,3.390826972878331711e-03,2.936896931991068559e-03,2.579901997055120220e-03,2.330697504137459707e-03,2.197327939545664580e-03,2.185200487104339059e-03,2.296958137627822319e-03,2.531785248806300587e-03,2.884054377202436865e-03,3.341951060175527011e-03,3.887049633138672626e-03,4.495276461885214410e-03,5.138886378380324096e-03,5.788861606520806849e-03,6.417635428090813325e-03,7.002422592060950080e-03,7.528966865802899644e-03,7.994591164197073149e-03,8.409233113576924240e-03,8.794070969065492099e-03,9.178423234100913791e-03,9.595945899398156467e-03,1.008098414605801407e-02,1.066567717035278758e-02,1.137795242841066652e-02,1.223996458849501215e-02,1.326638607373200121e-02,1.446240819601444030e-02,1.582191088175087176e-02,1.732659320136626865e-02,1.894679672760780226e-02,2.064428200942969999e-02,2.237658733318306087e-02,2.410226295764176727e-02,2.578621320228099631e-02,2.740415950473981330e-02,2.894499578021425892e-02,3.041015127212548519e-02,3.181003466802747454e-02,3.315863238138307134e-02,3.446790252821742284e-02,3.574357003584109627e-02,3.698331324661932595e-02,3.817743789113889341e-02,3.931148100033702436e-02,4.037007003382631076e-02,4.134146443890714118e-02,4.222200410376304031e-02,4.301935326459887382e-02,4.375361057973478629e-02,4.445601753342561663e-02,4.516554218468550597e-02,4.592385007094333671e-02,4.676926988430327170e-02,4.773053189005426605e-02,4.882150327297025277e-02,5.003860835114055244e-02,5.136223803178957548e-02,5.276193728653352094e-02,5.420364263577546332e-02,5.565682599772671380e-02,5.709979077676853587e-02,5.852195365366664320e-02,5.992285606965418870e-02,6.130877252458432486e-02,6.268828141069761328e-02,6.406780566998009074e-02,6.544780628690508029e-02,6.682051553224209461e-02,6.817008379546073138e-02,6.947520762879208500e-02,7.071337395916957314e-02,7.186562723353606685e-02,7.292110618535742328e-02,7.388079692330989934e-02,7.475970682904613251e-02,7.558651495297742662e-02,7.640027444803003387e-02,7.724458328667360707e-02,7.816024291609822983e-02,7.917786203174553838e-02,8.031208305287308724e-02,8.155874442292006254e-02,8.289561077352640417e-02,8.428674896260668348e-02,8.568974342088342411e-02,8.706351916557442117e-02,8.837387908689237070e-02,8.959500854728548458e-02,9.070718288906486071e-02,9.169221731400942210e-02,9.252844292487102940e-02,9.318661830917313038e-02,9.362787177486782408e-02,9.380474451796766422e-02,9.366607006849525519e-02,9.316544120076418467e-02,9.227176094230474246e-02,9.097918969348313400e-02,8.931327767755982416e-02,8.733105960850116867e-02,8.511506813491909185e-02,8.276323386516576397e-02,8.037758348894787075e-02,7.805425004646980580e-02,7.587579472073176234e-02,7.390531253347024099e-02,7.218155162266670644e-02,7.071532939520683292e-02,6.948844435171395995e-02,6.845592608041770055e-02,6.755134217329691881e-02,6.669420325845912267e-02,6.579852384811926691e-02,6.478152358591489357e-02,6.357097423386746937e-02,6.210958952696572083e-02,6.035582583856583666e-02,5.828212774152974340e-02,5.587287278424143272e-02,5.312424845698014014e-02,5.004702233675834000e-02,4.667104243995519319e-02,4.304843088730785777e-02,3.925242472130100607e-02,3.537081659053271238e-02,3.149528378278185908e-02,2.770938169487817057e-02,2.407848598981683283e-02,2.064420669465515806e-02,1.742392871145750574e-02,1.441441537705634435e-02,1.159765981013198034e-02,8.947166551430595083e-03,6.433434367147431408e-03,4.028335339852383290e-03,1.708574303088448466e-03,-5.417777374449998275e-04,-2.729986330098172105e-03,-4.854905706316834518e-03,-6.908700792360498652e-03,-8.879329359934006252e-03,-1.075284203749182939e-02,-1.251508234975200716e-02,-1.415298249095321183e-02,-1.565559014705111482e-02,-1.701459100463410118e-02,-1.822431190361867293e-02,-1.928188993080375002e-02,-2.018837988920987175e-02,-2.095068486425907123e-02,-2.158331303769447235e-02,-2.210892192773531578e-02,-2.255714727849643039e-02,-2.296181891104678158e-02,-2.335715742793655070e-02,-2.377377791326042156e-02,-2.423525707714199381e-02,-2.475580519879994404e-02,-2.533928875386011817e-02,-2.597947698721760068e-02,-2.666116025324451883e-02,-2.736190246606821572e-02,-2.805433045503019987e-02,-2.870862703532528828e-02,-2.929462597838522822e-02,-2.978329322869731344e-02,-3.014818468634351128e-02,-3.036768900529547913e-02,-3.042823410659052305e-02,-3.032781100706693003e-02,-3.007860359478112949e-02,-2.970744199076133865e-02,-2.925352785374031941e-02,-2.876407864712899123e-02,-2.828917764728653902e-02,-2.787681046170890908e-02,-2.756855342081835150e-02,-2.739628385230137228e-02,-2.738033127248018853e-02,-2.752919372126441319e-02,-2.784039483285888003e-02,-2.830180486147922808e-02,-2.889303619690690439e-02,-2.958695309823493325e-02,-3.035154591631250912e-02,-3.115239555574210104e-02,-3.195553985212352954e-02,-3.272982232702943695e-02,-3.344757428508245839e-02,-3.408326708471787203e-02,-3.461083463376220942e-02,-3.500064828120243859e-02,-3.521664161695040041e-02,-3.521386522577613781e-02,-3.493731882068853989e-02,-3.432340497858667877e-02,-3.330486620006451598e-02,-3.181897890712762772e-02,-2.981802025009171533e-02,-2.728075530296866433e-02,-2.422342343299433570e-02,-2.070839046654971219e-02,-1.684872010639254514e-02,-1.280760811093406559e-02,-8.792774838994758813e-03,-5.047014443306915323e-03,-1.836484726862309047e-03,5.620835072844689939e-04,1.874884435066057889e-03,1.845789515108684029e-03,2.534457959187233272e-04,-3.068567769365724684e-03,-8.208904374404399351e-03,-1.515464857650850906e-02,-2.376980099097741536e-02,-3.378058614066057480e-02,-4.477221908279661183e-02,-5.620019099904795257e-02,-6.741619447993238423e-02,-7.770572037626703732e-02,-8.633277670140679372e-02,-9.258774493597482502e-02,-9.583555422554307368e-02,-9.556074845115133942e-02,-9.140444586649364156e-02,-8.318937627889012865e-02,-7.093327971131815901e-02,-5.485343991516265089e-02,-3.536415159375292522e-02,-1.306758409583777883e-02,1.126144191724643903e-02,3.669669371328300456e-02,6.218908694101071832e-02,8.660378504549846868e-02,1.087648236810048047e-01,1.275041925964479350e-01,1.417124761133653488e-01,1.503901137513775910e-01,1.526999762664552895e-01,1.480220142466654731e-01,1.360095021561303630e-01,1.166429196904812671e-01,9.027084650689681800e-02,5.762192411220577737e-02,1.977475882197863438e-02,-2.191632206285876877e-02,-6.592859420002103454e-02,-1.106907312089188411e-01,-1.546922230037621748e-01,-1.965660034919297916e-01,-2.351392589031488234e-01,-2.694567342641346341e-01,-2.987847632434313949e-01,-3.226042690634602916e-01,-3.405991037181727576e-01,-3.526429759582085377e-01,-3.587851234636236786e-01,0.000000000000000000e+00,0.000000000000000000e+00,0.000000000000000000e+00,0.000000000000000000e+00,0.000000000000000000e+00,0.000000000000000000e+00,0.000000000000000000e+00,0.000000000000000000e+00,0.000000000000000000e+00,0.000000000000000000e+00,0.000000000000000000e+00,0.000000000000000000e+00,0.000000000000000000e+00,0.000000000000000000e+00,0.000000000000000000e+00,0.000000000000000000e+00,0.000000000000000000e+00,0.000000000000000000e+00,0.000000000000000000e+00,0.000000000000000000e+00,0.000000000000000000e+00,0.000000000000000000e+00,0.000000000000000000e+00,0.000000000000000000e+00,0.000000000000000000e+00,0.000000000000000000e+00,0.000000000000000000e+00,0.000000000000000000e+00,0.000000000000000000e+00,0.000000000000000000e+00,0.000000000000000000e+00,0.000000000000000000e+00,0.000000000000000000e+00,0.000000000000000000e+00,0.000000000000000000e+00,0.000000000000000000e+00,0.000000000000000000e+00,0.000000000000000000e+00,0.000000000000000000e+00,0.000000000000000000e+00,0.000000000000000000e+00,0.000000000000000000e+00,0.000000000000000000e+00,0.000000000000000000e+00,0.000000000000000000e+00,0.000000000000000000e+00,0.000000000000000000e+00,0.000000000000000000e+00,0.000000000000000000e+00,0.000000000000000000e+00,0.000000000000000000e+00,0.000000000000000000e+00,0.000000000000000000e+00,0.000000000000000000e+00,0.000000000000000000e+00,0.000000000000000000e+00,0.000000000000000000e+00,0.000000000000000000e+00,0.000000000000000000e+00,0.000000000000000000e+00,0.000000000000000000e+00,0.000000000000000000e+00,0.000000000000000000e+00,0.000000000000000000e+00,0.000000000000000000e+00,0.000000000000000000e+00,0.000000000000000000e+00
-3.592339512979155769e-01,-3.543393166075683998e-01,-3.445756288332509909e-01,-3.305276743226979175e-01,-3.128789482592916338e-01,-2.923987147678183129e-01,-2.699211125229455388e-01,-2.463108880314318905e-01,-2.224164048259899273e-01,-1.990175340448258889e-01,-1.767792128366704463e-01,-1.562194507457363157e-01,-1.376956671329128690e-01,-1.214084352246847937e-01,-1.074182649866244621e-01,-9.566969608328824981e-02,-8.601813328981333662e-02,-7.825695748813973895e-02,-7.214333121581345543e-02,-6.742097368428151549e-02,-6.383848397669016073e-02,-6.116274204651091229e-02,-5.918763260889259303e-02,-5.773842806290567509e-02,-5.667213676127286909e-02,-5.587456669831787626e-02,-5.525558858813569424e-02,-5.474433561182941860e-02,-5.428553296926019039e-02,-5.383722079165302599e-02,-5.336935568063950336e-02,-5.286257032261033190e-02,-5.230681855703137734e-02,-5.170014988240867471e-02,-5.104782613045492218e-02,-5.036161607739195883e-02,-4.965900738848692819e-02,-4.896227446748836060e-02,-4.829732823040775586e-02,-4.769203267786934625e-02,-4.717366947589090448e-02,-4.676563942552482839e-02,-4.648400322830646691e-02,-4.633459672440161381e-02,-4.631118095324567724e-02,-4.639495677146855679e-02,-4.655585336140162511e-02,-4.675568488190188360e-02,-4.695251375967265245e-02,-4.710506293266152056e-02,-4.717633553339319746e-02,-4.713654550400327159e-02,-4.696598430000155366e-02,-4.665773852799093985e-02,-4.621899923116640913e-02,-4.566958148228933423e-02,-4.503763801097489944e-02,-4.435412942228662836e-02,-4.364781091535511331e-02,-4.294159187992887400e-02,-4.225058367840124618e-02,-4.158205596963133327e-02,-4.093708976382402082e-02,-4.031316515617253821e-02,-3.970683677714238052e-02,-3.911584008535058665e-02,-3.853999424429975507e-02,-3.798038831909373442e-02,-3.743718009167382177e-02,-3.690739942512763494e-02,-3.638408117025651589e-02,-3.585690757393834860e-02,-3.531379153523844794e-02,-3.474298627865980704e-02,-3.413547720955866643e-02,-3.348715015179838661e-02,-3.280008824488604702e-02,-3.208264998633966747e-02,-3.134839147986972357e-02,-3.061423395452720839e-02,-2.989855367715925361e-02,-2.921974680508259564e-02,-2.859511478565676668e-02,-2.803936737737750678e-02,-2.756252968114050392e-02,-2.716810230862030592e-02,-2.685256267719264914e-02,-2.660638552216164701e-02,-2.641588988468300536e-02,-2.626529321161743050e-02,-2.613885299127356385e-02,-2.602304210086622133e-02,-2.590839283188967057e-02,-2.579058185883701879e-02,-2.567067978734016015e-02,-2.555479537169873250e-02,-2.545328190851782815e-02,-2.537941750769987653e-02,-2.534729513761360686e-02,-2.536880478657384946e-02,-2.545026060242897362e-02,-2.559000840983475730e-02,-2.577828643017882060e-02,-2.599946994980681728e-02,-2.623558224209018852e-02,-2.646959523838970582e-02,-2.668750483761184525e-02,-2.687884837912090166e-02,-2.703600905560774384e-02,-2.715306193924135747e-02,-2.722473232986110520e-02,-2.724571561492947561e-02,-2.721064228205739496e-02,-2.711496192691510362e-02,-2.695662503202408272e-02,-2.673794593060001626e-02,-2.646681753637682849e-02,-2.615669260004755206e-02,-2.582528640030295336e-02,-2.549247397733045081e-02,-2.517812994230003015e-02,-2.490050684678464521e-02,-2.467519423569241796e-02,-2.451417158068251376e-02,-2.442452301676466958e-02,-2.440703224870163779e-02,-2.445532036671357184e-02,-2.455596744687231839e-02,-2.468968605936617058e-02,-2.483330249930433206e-02,-2.496184509712005492e-02,-2.504995566261626269e-02,-2.507256484184218481e-02,-2.500565266319036348e-02,-2.482808466730083291e-02,-2.452480778354168209e-02,-2.409083448877891859e-02,-2.353518979655727650e-02,-2.288391306720841123e-02,-2.218076357494320333e-02,-2.148419570741122789e-02,-2.086002586816503371e-02,-2.037046851172735415e-02,-2.006137955120814234e-02,-1.995059453106307404e-02,-2.002094556241837409e-02,-2.022120553470219823e-02,-2.047609901011268954e-02,-2.070276201563872251e-02,-2.082774662451412212e-02,-2.079882842456255362e-02,-2.058954474972291351e-02,-2.019801177701598810e-02,-1.964257215203987425e-02,-1.895609497175860386e-02,-1.817993050176377676e-02,-1.735811851421715027e-02,-1.653232160012944180e-02,-1.573777071143904818e-02,-1.500027365230039225e-02,-1.433440442897666346e-02,-1.374320804709762769e-02,-1.321957018504899169e-02,-1.274879078023540870e-02,-1.231148228889362636e-02,-1.188617080528086775e-02,-1.145155395724005258e-02,-1.098860965838730289e-02,-1.048262850788409320e-02,-9.924983364883994616e-03,-9.314189631262740493e-03,-8.655895972303772473e-03,-7.961934343245859191e-03,-7.248963501453333479e-03,-6.537231369084864352e-03,-5.849601431906808341e-03,-5.210548066970597213e-03,-4.644739743714039297e-03,-4.175070705592811952e-03,-3.820273900720751355e-03,-3.592496846358805233e-03,-3.495355277076409462e-03,-3.522821339335789267e-03,-3.658937833989581081e-03,-3.878061694826537807e-03,-4.145440835439682080e-03,-4.418431319462178507e-03,-4.649034955305474288e-03,-4.788158267872175654e-03,-4.791242992432964178e-03,-4.624230751413257144e-03,-4.268412179864430715e-03,-3.722810531444627896e-03,-3.003652452605558819e-03,-2.141553341195093045e-03,-1.177327571081841469e-03,-1.570532736533005835e-04,8.731253442211535203e-04,1.872059639773032214e-03,2.808214792396153316e-03,3.663322712434659983e-03,4.434314996888027820e-03,5.133060165864546109e-03,5.783999375914234374e-03,6.420222341989863246e-03,7.078801052870262872e-03,7.796304872476979980e-03,8.605207966324551760e-03,9.531307005633872856e-03,1.059189127160933309e-02,1.179481181456543994e-02,1.313899354598562288e-02,1.461635661776869259e-02,1.621413561803219244e-02,1.791644494036067833e-02,1.970479392202535013e-02,2.155807156869154681e-02,2.345260646605872024e-02,2.536274203297183075e-02,2.726237227800773488e-02,2.912763341848178741e-02,3.094024931680603233e-02,3.269051170910308723e-02,3.437901293069564601e-02,3.601667977500588175e-02,3.762297129414473446e-02,3.922256738004776394e-02,4.084150212983572725e-02,4.250371763629943317e-02,4.422833789178480524e-02,4.602758182305962537e-02,4.790558039061507123e-02,4.985861242515183395e-02,5.187662570400559947e-02,5.394496208413169375e-02,5.604524156222800979e-02,5.815540353976492854e-02,6.024985201340601199e-02,6.230078257887802090e-02,6.428099718147482766e-02,6.616738877257274942e-02,6.794389919798403399e-02,6.960342736765363914e-02,7.114891070216758373e-02,7.259377634228686427e-02,7.396145726275273058e-02,7.528353572882837130e-02,7.659648588265523250e-02,7.793735833882436959e-02,7.933892379613327606e-02,8.082509196411279129e-02,8.240767424613626435e-02,8.408528315197619230e-02,8.584436729235966901e-02,8.766174562781747781e-02,8.950812236549608725e-02,9.135238138279493103e-02,9.316607513456397205e-02,9.492690233293735180e-02,9.662022685911596243e-02,9.823877574228118137e-02,9.978147349870941651e-02,1.012522122381956519e-01,1.026586818805751006e-01,1.040110560831876835e-01,1.053204428134096871e-01,1.065972475335499048e-01,1.078497694889984371e-01,1.090831085095598507e-01,1.102979949723361247e-01,1.114893312100454781e-01,1.126449183642055096e-01,1.137450576244518063e-01,1.147633632233460155e-01,1.156688482469024476e-01,1.164292796476617819e-01,1.170154804370986679e-01,1.174056609733698103e-01,1.175887031708450076e-01,1.175657833526315282e-01,1.173502036256462988e-01,1.169656583553021906e-01,1.164434964307412279e-01,1.158195779294310113e-01,1.151310596188085678e-01,1.144131681006722023e-01,1.136958791983608136e-01,1.130005753445551264e-01,1.123371222233864319e-01,1.117020356870607883e-01,1.110783794422509907e-01,1.104377331790481337e-01,1.097439973836614596e-01,1.089582662454905843e-01,1.080438165333567208e-01,1.069703260752762480e-01,1.057165248480408382e-01,1.042707070440941769e-01,1.026291870489073610e-01,1.007936317860385067e-01,9.876856610531521696e-02,9.656004593258893376e-02,9.417590391727993782e-02,9.162738336157963404e-02,8.893147591855336820e-02,8.611299124219780332e-02,8.320552572551108417e-02,8.025093351339611381e-02,7.729714286071845408e-02,7.439428477599635547e-02,7.158966409034504819e-02,6.892289908299761847e-02,6.642270523584686837e-02,6.410598634338886270e-02,6.197875164943126430e-02,6.003767088060744245e-02,5.827110852217563114e-02,5.665927889913147802e-02,5.517435694235537508e-02,5.378182951208205359e-02,5.244342255972121031e-02,5.112072481439174088e-02,4.977851685613543520e-02,4.838750598812867343e-02,4.692661856022070643e-02,4.538487083208066902e-02,4.376248952178260487e-02,4.207077944946682052e-02,4.033032246503349266e-02,3.856756720152449552e-02,3.681068776410333782e-02,3.508592272488202796e-02,3.341488524166202206e-02,3.181247261585280067e-02,3.028511656790004378e-02,2.882982811204476414e-02,2.743470157402086787e-02,2.608099731730431983e-02,2.474622610694258290e-02,2.340737804726613497e-02,2.204366801807986290e-02,2.063863545506737160e-02,1.918170505822678826e-02,1.766914910996539995e-02,1.610413031086302751e-02,1.449569503061068007e-02,1.285720568777928841e-02,1.120507427251375872e-02,9.558292448163033944e-03,7.938517416089861320e-03,6.370072365382733678e-03,4.879331763093431099e-03,3.493274995658307742e-03,2.237188011078418328e-03,1.131631258244458500e-03,1.891398116952308379e-04,-5.885338959414468168e-04,-1.211853278554016373e-03,-1.703071504947218815e-03,-2.093748621014023068e-03,-2.420555948958232322e-03,-2.720241105044646571e-03,-3.024836760505514831e-03,-3.358037647369613559e-03,-3.733226106091456446e-03,-4.153125732913201182e-03,-4.610828190258434850e-03,-5.092044350870051327e-03,-5.578496676958977218e-03,-6.052037487772451464e-03,-6.498640205243304963e-03,-6.911431253815710635e-03,-7.292416366573678879e-03,-7.652987374891168440e-03,-8.013350864173689886e-03,-8.400943194355050408e-03,-8.847978030243586547e-03,-9.388312030672391062e-03,-1.005361729761938827e-02,-1.086876229072561081e-02,-1.184673606340073786e-02,-1.298418344450209122e-02,-1.425886806273088912e-02,-1.562977723731649032e-02,-1.703976292226257530e-02,-1.842027743545451499e-02,-1.969774159723302817e-02,-2.080091696409297822e-02,-2.166843085030863147e-02,-2.225557240667125694e-02,-2.253953131993247788e-02,-2.252229233205194428e-02,-2.223056204190090868e-02,-2.171254862683491549e-02,-2.103213685366644992e-02,-2.026159399216969845e-02,-1.947397674439131643e-02,-1.873610660001952255e-02,-1.810272924987415405e-02,-1.761225316953114045e-02,-1.728442530326968277e-02,-1.712051944014610430e-02,-1.710634240520329807e-02,-1.721737488388465007e-02,-1.742478354738776283e-02,-1.770140124688060132e-02,-1.802713311970170068e-02,-1.839301580111797271e-02,-1.880279736028362542e-02,-1.927098915694886935e-02,-1.981735103830864139e-02,-2.045949663669937441e-02,-2.120622183856473927e-02,-2.205336685171875935e-02,-2.298262249234233473e-02,-2.396300729301879123e-02,-2.495473780795895782e-02,-2.591500248581916216e-02,-2.680434193218595579e-02,-2.759171244218654867e-02,-2.825686874423585793e-02,-2.879024454245861231e-02,-2.919162233152099509e-02,-2.946863374358670712e-02,-2.963526408936381640e-02,-2.971016972267993481e-02,-2.971469715126007216e-02,-2.967061556352048116e-02,-2.959790648732114893e-02,-2.951330305398683698e-02,-2.942990769039331711e-02,-2.935736465055582139e-02,-2.930187593078053057e-02,-2.926603168303378369e-02,-2.924893998115576238e-02,-2.924689284120604929e-02,-2.925435817871166466e-02,-2.926498250102209375e-02,-2.927238368747822617e-02,-2.927076038691725154e-02,-2.925569745932947441e-02,-2.922534258144434891e-02,-2.918128040991671557e-02,-2.912807989674365966e-02,-2.907121337464491778e-02,-2.901402440061132820e-02,-2.895490870846398335e-02,-2.888588119594412765e-02,-2.879322231090064924e-02,-2.865993597139540952e-02,-2.846898478429244275e-02,-2.820634294765942893e-02,-2.786342636491595873e-02,-2.743869987311368247e-02,-2.693823155293125285e-02,-2.637500268882368368e-02,-2.576695421520688173e-02,-2.513402465801358940e-02,-2.449473309728417147e-02,-2.386301506651673787e-02,-2.324595601598399355e-02,-2.264276292269923677e-02,-2.204490891475978376e-02,-2.143726856286100324e-02,-2.080025648339907038e-02,-2.011295421291159000e-02,-1.935669470691702213e-02,-1.851815621223630928e-02,-1.759139697703066343e-02,-1.657902315736610802e-02,-1.549281463813020204e-02,-1.435365779867059204e-02,-1.319039991788384554e-02,-1.203752378026584635e-02,-1.093191878506878829e-02,-9.909204073535470697e-03,-9.000147495284714291e-03,-8.227767640438721566e-03,-7.605517680314741180e-03,-7.136615431459003740e-03,-6.814418440104489348e-03,-6.623634711998315112e-03,-6.541885322976748532e-03,-6.541013992302971598e-03,-6.587994097106104202e-03,-6.646046168025690655e-03,-6.676762427726205297e-03,-6.643314644250095102e-03,-6.514007981959741428e-03,-6.265260681555475178e-03,-5.883421306529185504e-03,-5.365350436612921665e-03,-4.718076756963823955e-03,-3.957827580536491842e-03,-3.108503676216138947e-03,-2.199607033561192145e-03,-1.263850518610328683e-03,-3.350003008563397439e-04,5.534350751395649423e-04,1.368448635134862645e-03,2.077070532104863948e-03,2.645987636185531591e-03,3.042199564104961732e-03,3.235444930335364816e-03,3.202454369322434592e-03,2.932015882345691358e-03,2.428999566441551045e-03,1.715763448080793964e-03,8.304992754019965145e-04,-1.770151467260647139e-04,-1.251399894915099535e-03,-2.338317437329302459e-03,-3.390691589780288773e-03,-4.373711593076785344e-03,-5.268086065435566637e-03,-6.071049347312878347e-03,-6.794892428882367413e-03,-7.463400359924054345e-03,-8.106944322048737980e-03,-8.757021032506201105e-03,-9.441158038879878325e-03,-1.017908575792072536e-02,-1.098053119494222900e-02,-1.184432274027990423e-02,-1.275842054633916610e-02,-1.370093519466951924e-02,-1.464238427704909161e-02,-1.554910642926607064e-02,-1.638735896817591214e-02,-1.712730551637322435e-02,-1.774594129901711434e-02,-1.822849690552604332e-02,-1.856871680825105536e-02,-1.876860279987477634e-02,-1.883775809259084083e-02,-1.879224405830356992e-02,-1.865306294095282758e-02,-1.844449238453032061e-02,-1.819225183379603178e-02,-1.792127626013439654e-02,-1.765321082281252202e-02,-1.740427863497740271e-02,-1.718410692516510185e-02,-1.699551860099807535e-02,-1.683500717747187306e-02,-1.669375778551379988e-02,-1.655919584311324466e-02,-1.641698315180260478e-02,-1.625326798758021038e-02,-1.605692509319474673e-02,-1.582158134531378574e-02,-1.554737625455598210e-02,-1.524239507557791778e-02,-1.492337722939982188e-02,-1.461499337032665449e-02,-1.434731093626131354e-02,-1.415191695546224454e-02,-1.405761161498795229e-02,-1.408630901467393393e-02,-1.424952777323753618e-02,-1.454603099977112846e-02,-1.496122607090300330e-02,-1.546839743318217768e-02,-1.603116535739250795e-02,-1.660656420966049110e-02,-1.714879728166561826e-02,-1.761394763432891364e-02,-1.796511961880592131e-02,-1.817671057509225377e-02,-1.823684971160756396e-02,-1.814793865757678010e-02,-1.792563571633740485e-02,-1.759647855660824781e-02,-1.719423035254141058e-02,-1.675537539420073399e-02,-1.631474442194792013e-02,-1.590233003229695602e-02,-1.554173053102666721e-02,-1.524989622448502148e-02,-1.503754021883820652e-02,-1.490972040265962049e-02,-1.486633738325719017e-02,-1.490236513310763157e-02,-1.500759052144056555e-02,-1.516586594732678706e-02,-1.535454035908271654e-02,-1.554515079338489661e-02,-1.570596796540646781e-02,-1.580608289453691931e-02,-1.582014789263825466e-02,-1.573260122390386651e-02,-1.554013900934592129e-02,-1.525171214621596355e-02,-1.488630645899902301e-02,-1.446940603299734333e-02,-1.402894077165602049e-02,-1.359123822171542928e-02,-1.317749692538716655e-02,-1.280120513494849635e-02,-1.246664753429420174e-02,-1.216869816442191568e-02,-1.189422332046724713e-02,-1.162478857403295707e-02,-1.133951704736406441e-02,-1.101726067451663620e-02,-1.063844099184549190e-02,-1.018729606380406466e-02,-9.654446738720645974e-03,-9.038922299378051445e-03,-8.348806016558876081e-03,-7.600146624857056186e-03,-6.814432154801139396e-03,-6.015563326937979974e-03,-5.227429992034510545e-03,-4.472622483480926184e-03,-3.771914570986273363e-03,-3.143662051688663524e-03,-2.602544236918815767e-03,-2.157819461549310980e-03,-1.811787620251621364e-03,-1.559089419464586377e-03,-1.387108416952851329e-03,-1.277504665471875141e-03,-1.208644271095871484e-03,-1.158207248575480151e-03,-1.105141170233252213e-03,-1.030808506515289158e-03,-9.200300138889688176e-04,-7.628747140477382289e-04,-5.572749986243470243e-04,-3.114702226985177191e-04,-4.486586538769379460e-05,2.134959534812834177e-04,4.286435485471334255e-04,5.647187604571704024e-04,5.903315336647577127e-04,4.831951619972495019e-04,2.332182922625432027e-04,-1.563624202454494741e-04,-6.697967975498349399e-04,-1.281165963602419770e-03,-1.957614189413489983e-03,-2.662914971215968492e-03,-3.360941879817812457e-03,-4.018659832714181410e-03,-4.608505342527826135e-03,-5.110312532310591106e-03,-5.512894927684679029e-03,-5.815224259799825664e-03,-6.026990714419746750e-03,-6.168096890034700970e-03,-6.266734213352272848e-03,-6.356243368215963932e-03,-6.471314211543203673e-03,-6.644010514904341927e-03,-6.900127769291123682e-03,-7.256628032800894156e-03,-7.720709727812424990e-03,-8.290213290380672034e-03,-8.954453912238893171e-03,-9.694999836021955808e-03,-1.048666242946067265e-02,-1.129901788010536159e-02,-1.209844409767204393e-02,-1.285059433385406409e-02,-1.352313249445435787e-02,-1.408815469077507633e-02,-1.452367237139340871e-02,-1.481411847604413405e-02,-1.495034692969051011e-02,-1.492957658203726556e-02,-1.475545651526964479e-02,-1.443812343398398305e-02,-1.399390288066523942e-02,-1.344444892043868134e-02,-1.281553028829628647e-02,-1.213586790922675449e-02,-1.143618272241645265e-02,-1.074811483242014282e-02,-1.010248037612612899e-02,-9.526837538325958268e-03,-9.043037956718600473e-03,-8.665604017612365054e-03,-8.401332808024082610e-03,-8.249926891931531545e-03,-8.205177964379497396e-03,-8.256247074620441315e-03,-8.388539118030025402e-03,-8.583806805318344377e-03,-8.819716954515145757e-03,-9.069635052329501346e-03,-9.303409984003651462e-03,-9.489666199071452798e-03,-9.599600380643613651e-03,-9.611490039772054017e-03,-9.514546800135314369e-03,-9.310950532305269436e-03,-9.015523264012691163e-03,-8.652940688295340452e-03,-8.252894661352707176e-03,-7.844375536771896681e-03,-7.450648169937651444e-03,-7.086291916773064352e-03,-6.757012418284374759e-03,-6.461930025630544840e-03,-6.197180997705599610e-03,-5.959369431076927577e-03,-5.747624678714151510e-03,-5.563679768979114086e-03,-5.410278825730398256e-03,-5.288851587444125257e-03,-5.197565465801701375e-03,-5.130616742902885212e-03,-5.078960360637221894e-03,-5.031886012946479997e-03,-4.978492942772230236e-03,-4.908530613560973220e-03,-4.812815205857033478e-03,-4.683658858386442921e-03,-4.515414194197717515e-03,-4.304982359136382691e-03,-4.052095156935406860e-03,-3.759103187975648252e-03,-3.430033384740989368e-03,-3.069194343189998037e-03,-2.680249025184731470e-03,-2.266377701081829718e-03,-1.831033084034601249e-03,-1.378380438013524986e-03,-9.131692669239410915e-04,-4.403826820465572118e-04,3.486322973059704838e-05,5.067778248761687027e-04,9.676500264392217093e-04,1.406361762660271594e-03,1.807403404886173378e-03,2.150873199610380936e-03,2.413512055404182146e-03,2.570817385003490441e-03,2.600364958197063335e-03,2.485945116121812508e-03,2.221444777163291556e-03,1.813424779981532382e-03,1.281947524951968691e-03,6.598584014507893154e-04,-9.022241895491263678e-06,-6.727165179852558855e-04,-1.275316582620262445e-03,-1.762734446210651937e-03,-2.089141536854323671e-03,-2.222618193910157452e-03,-2.148790430427896265e-03,-1.872250293246435814e-03,-1.416452015716371466e-03,-8.225343410994279819e-04,-1.465146003229454480e-04,5.458410913100232706e-04,1.186019997812153828e-03,1.710169748083628129e-03,2.065535605211569516e-03,2.215255233543890132e-03,2.141391132847786025e-03,1.846238851861828085e-03,1.351843763480203029e-03,6.975381110035183772e-04,-6.464477790884881397e-05,-8.764377403445871607e-04,-1.680755187768411202e-03,-2.428607207320363729e-03,-3.084225038199497719e-03,-3.627906367954344263e-03,-4.056785135376345802e-03,-4.383628919669837337e-03,-4.633438738136083646e-03,-4.838156729440134737e-03,-5.030726734555152069e-03,-5.239881124541232414e-03,-5.486461122597381668e-03,-5.781594148668283556e-03,-6.126635400169187784e-03,-6.514309398421670033e-03,-6.930385893856316065e-03,-7.355552287245936682e-03,-7.767387038419694238e-03,-8.142339045467411260e-03,-8.457602064916594498e-03,-8.692879102679221606e-03,-8.832242729279867963e-03,-8.866204556141194654e-03,-8.793416685353319315e-03,-8.620949889702354471e-03,-8.362741937296316874e-03,-8.036971648904576299e-03,-7.663513049882235764e-03,-7.262129188486553602e-03,-6.851537536844377538e-03,-6.449331866417162828e-03,-6.072586984817398247e-03,-5.738602812435509258e-03,-5.465080254198177896e-03,-5.269279030617337635e-03,-5.166058747011777370e-03,-5.165020431479365459e-03,-5.267458825210606481e-03,-5.464299654261285492e-03,-5.736044070967530502e-03,-6.054916133531629795e-03,-6.388617620205761828e-03,-6.704883233387118682e-03,-6.976021624344669499e-03,-7.182404229062511886e-03,-7.313923365601817869e-03,-7.369202408798382342e-03,-7.353234324849569278e-03,-7.274491994521365551e-03,-7.142459043946527281e-03,-6.966328491458132800e-03,-6.755238935390622812e-03,-6.519571257972225226e-03,-6.271926918745454431e-03,-6.026415450331496296e-03,-5.796002539005545677e-03,-5.588999780335592027e-03,-5.406273304640858181e-03,-5.240250507601164343e-03,-5.075956939136593536e-03,-4.893689724111782366e-03,-4.672704906254558123e-03,-4.395347898278875731e-03,-4.050924420112398880e-03,-3.638197486086150196e-03,-3.165511080207475837e-03,-2.648626134173051420e-03,-2.107549171749679810e-03,-1.563840358889327046e-03,-1.039058883948158849e-03,-5.540544696245243862e-04,-1.283757609059771321e-04,2.209466187134419117e-04,4.814392848552496952e-04,6.471532969890962141e-04,7.192027078989895929e-04,7.044930706446330933e-04,6.135722012615986952e-04,4.587823371137295905e-04,2.531579526338619880e-04,9.836743652786152179e-06,-2.583118189953871342e-04,-5.390072165032260302e-04,-8.210680920459075645e-04,-1.095308167676490663e-03,-1.355690404314356190e-03,-1.600375502192740752e-03,-1.832303572460861453e-03,-2.058940206915332947e-03,-2.290841058608213392e-03,-2.539243647635594514e-03,-2.813714427722607044e-03,-3.120802576483065055e-03,-3.463665787634422413e-03,-3.842041553078029588e-03,-4.252208969905272792e-03,-4.687018592508323915e-03,-5.136217502468955545e-03,-5.587270841554884022e-03,-6.026669220325257294e-03,-6.441290029100040643e-03,-6.819270022504262015e-03,-7.150491809057022904e-03,-7.427389987040915534e-03,-7.646286869741035670e-03,-7.808493973037547789e-03,-7.920308429834641006e-03,-7.991775127774191842e-03,-8.034769599681405861e-03,-8.061234521101726461e-03,-8.082416618208779560e-03,-8.109576422186343461e-03,-8.155675684139624543e-03,-8.236601116716032317e-03,-8.370603973862553865e-03,-8.575771444442027713e-03,-8.866453527343502033e-03,-9.250011403240237032e-03,-9.725093689629243227e-03,-1.028210567541997487e-02,-1.090568547799728241e-02,-1.157806094666255156e-02,-1.228181406117814095e-02,-1.300114191439620016e-02,-1.372154555666902850e-02,-1.442845248313766489e-02,-1.510567898405902956e-02,-1.573476661835917362e-02,-1.629571801799307648e-02,-1.676887688296966814e-02,-1.713744307416359761e-02,-1.739026817796506669e-02,-1.752448637415089314e-02,-1.754732210239934309e-02,-1.747650954619458380e-02,-1.733895822099786044e-02,-1.716747037803729309e-02,-1.699583848021892982e-02,-1.685338052772126019e-02,-1.676023217826323047e-02,-1.672446933752366055e-02,-1.674177435147783041e-02,-1.679783321121348927e-02,-1.687279031666050547e-02,-1.694630961472177316e-02,-1.700184258311751573e-02,-1.702960170367583126e-02,-1.702850401702186295e-02,-1.700722409802849985e-02,-1.698395347404814404e-02,-1.698453941282509344e-02,-1.703940775931749030e-02,-1.717996703983849793e-02,-1.743472988287328440e-02,-1.782521893225744863e-02,-1.836213167231314641e-02,-1.904233324288475901e-02,-1.984701396143869270e-02,-2.074144867627223873e-02,-2.167680702294593267e-02,-2.259373484492608469e-02,-2.342672750570744603e-02,-2.410863224809257563e-02,-2.457532910811988797e-02,-2.477067667076456731e-02,-2.465137637629152834e-02,-2.419115117615362742e-02,-2.338353784228224680e-02,-2.224259519878118291e-02,-2.080125253960229958e-02,-1.910779678655151123e-02,-1.722134254295610775e-02,-1.520671181792562950e-02,-1.312876564324071647e-02,-1.104650636607238529e-02,-9.007757658139926155e-03,-7.045310102367457333e-03,-5.175028578459866732e-03,-3.395880312451010803e-03,-1.691535620324475251e-03,-3.321545444610959506e-05,1.616300743900656771e-03,3.297441255735930610e-03,5.047701780524559839e-03,6.895637334994364313e-03,8.856304779873100733e-03,1.092915430226434545e-02,1.309877672407979213e-02,1.533816920381818674e-02,1.761347666837620798e-02,1.988883337403953705e-02,2.213018300918130968e-02,2.430773683582161671e-02,2.639740676963587065e-02,2.838158634428917040e-02,3.024942894543042327e-02,3.199675606987451015e-02,3.362575382161085702e-02,3.514440730848468475e-02,3.656523941520050530e-02,3.790286808424903758e-02,3.917054383502165116e-02,4.037665685769313562e-02,4.152253154495902376e-02,4.260260800485891897e-02,4.360743156267535975e-02,4.452881305323400096e-02,4.536550953467675257e-02,4.612738224174066370e-02,4.683649466518077786e-02,4.752475394139766413e-02,4.822892570737619122e-02,4.898469316894222408e-02,4.982137574964067006e-02,5.075799787536094260e-02,5.180084135895443587e-02,5.294307690289429963e-02,5.416721856147387049e-02,5.545009948583220355e-02,5.676893706447704718e-02,5.810684849607011121e-02,5.945660091976113365e-02,6.082189649283305938e-02,6.221605908686202863e-02,6.365863943750306453e-02,6.517081582343704771e-02,6.677020919610555938e-02,6.846528486666360325e-02,7.024990560200043699e-02,7.209996839818280656e-02,7.397448968267185399e-02,7.582144957523008488e-02,7.758589280582119108e-02,7.921694008413256161e-02,8.067167813513104191e-02,8.191583619966162633e-02,8.292250191712262353e-02,8.367029120865254743e-02,8.414159368839002617e-02,8.432089945833855238e-02,8.419360781203451272e-02,8.374636750420688669e-02,8.296961607850782128e-02,8.186180656967190217e-02,8.043385290960348988e-02,7.871192011606310823e-02,7.673716859503132426e-02,7.456251576936398506e-02,7.224773372961303119e-02,6.985430590330479750e-02,6.744086627255049815e-02,6.505949364237050003e-02,6.275285881405061328e-02,6.055210494667249976e-02,5.847530912781500473e-02,5.652649964270882454e-02,5.469538083848947407e-02,5.295802141281812786e-02,5.127882349951888574e-02,4.961393988115298664e-02,4.791592641137330105e-02,4.613907308897941678e-02,4.424441899805596490e-02,4.220297507523013830e-02,3.999599749942810145e-02,3.761256626919023960e-02,3.504624752596202653e-02,3.229315469247538706e-02,2.935290501701050617e-02,2.623213870104473822e-02,2.294844470009985843e-02,1.953199826210613374e-02,1.602337869703017795e-02,1.246798326317356299e-02,8.909039147232707470e-03,5.381948655708731349e-03,1.912255627558495262e-03,-1.482193906883103474e-03,-4.786403343779358117e-03,-7.983283285074060584e-03,-1.105072461744353862e-02,-1.396139792644394799e-02,-1.668488900648066806e-02,-1.919135048502545668e-02,-2.145560797591332045e-02,-2.346056811808445303e-02,-2.519914110530587642e-02,-2.667446871894452870e-02,-2.789860572295019617e-02,-2.888999599167013307e-02,-2.967044166649361256e-02,-3.026252227798563801e-02,-3.068794689140430521e-02,-3.096654534639621190e-02,-3.111562919103148458e-02,-3.115012253134779099e-02,-3.108390283993053838e-02,-3.093178396681860523e-02,-3.071074752670373276e-02,-3.043962852467554589e-02,-3.013783011890841523e-02,-2.982416287196027263e-02,-2.951625455515556606e-02,-2.923017157840489266e-02,-2.897984263195999347e-02,-2.877640771376558174e-02,-2.862778383659399586e-02,-2.853833143716026643e-02,-2.850829478903437950e-02,-2.853308209417030478e-02,-2.860305454248769641e-02,-2.870457342534661269e-02,-2.882229386135831337e-02,-2.894185798862803846e-02,-2.905209267600055920e-02,-2.914625888606251630e-02,-2.922214681889417562e-02,-2.928098259403668149e-02,-2.932560436882744245e-02,-2.935873363529741681e-02,-2.938176573191571966e-02,-2.939390791451870072e-02,-2.939163533990164431e-02,-2.936886032867534746e-02,-2.931793401936121785e-02,-2.923097042747984861e-02,-2.910110892955055165e-02,-2.892406926036951778e-02,-2.870039209597076077e-02,-2.843780961543088473e-02,-2.815251715347719466e-02,-2.786850725172771923e-02,-2.761489447491007054e-02,-2.742156313848775548e-02,-2.731367758988201624e-02,-2.730581626083164112e-02,-2.739648002959358189e-02,-2.756350750840265082e-02,-2.776096387285881609e-02,-2.791840032526598375e-02,-2.794343092226918290e-02,-2.772801669553703191e-02,-2.715799264926447784e-02,-2.612468314809817532e-02,-2.453723602621749045e-02,-2.233454748736667453e-02,-1.949599649784638719e-02,-1.605037658788180735e-02,-1.208223820761184647e-02,-7.734396526331691925e-03,-3.205341193720903908e-03,1.258790630542053332e-03,5.376926326609395533e-03,8.849265763110389371e-03,1.137567482428461681e-02,1.267475561807255256e-02,1.250213483135097052e-02,1.066701873513465140e-02,7.046766690150058944e-03,1.599964115995117101e-03,-5.621072849509695622e-03,-1.445820390764314400e-02,-2.463792415156898508e-02,-3.576858338395703940e-02,-4.734827304530015574e-02,-5.878473045462224988e-02,-6.942564775104553831e-02,-7.859588622895262444e-02,-8.563789358443735233e-02,-8.995262771324327722e-02,-9.103866940578159150e-02,-8.852623747991997250e-02,-8.220270160174611429e-02,-7.202850236231443659e-02,-5.814502853745786431e-02,-4.087642260418821588e-02,-2.072615617608247404e-02,1.631789076060530946e-03,2.536819941772645165e-02,4.952203006857340550e-02,7.303271474739764235e-02,9.478006161269553198e-02,1.136287145718056779e-01,1.284742147248694177e-01,1.382898245905527235e-01,1.421757891617661251e-01,1.394131904982449377e-01,1.295228416736005361e-01,1.123263109725648884e-01,8.800013812303315863e-02,5.710735745334943880e-02,2.058936566324661571e-02,-2.029008504698386062e-02,-6.404274570936810407e-02,-1.090770347508610710e-01,-1.538180218186275816e-01,-1.968051305587099342e-01,-2.367577067472604047e-01,-2.726102631273058519e-01,-3.035248253088099757e-01,-3.288882015633432521e-01,-3.483010665544672424e-01,-3.615644013329126216e-01,-3.686661417028593846e-01,0.000000000000000000e+00,0.000000000000000000e+00,0.000000000000000000e+00,0.000000000000000000e+00,0.000000000000000000e+00,0.000000000000000000e+00,0.000000000000000000e+00,0.000000000000000000e+00,0.000000000000000000e+00,0.000000000000000000e+00,0.000000000000000000e+00,0.000000000000000000e+00,0.000000000000000000e+00,0.000000000000000000e+00,0.000000000000000000e+00,0.000000000000000000e+00,0.000000000000000000e+00,0.000000000000000000e+00,0.000000000000000000e+00,0.000000000000000000e+00,0.000000000000000000e+00,0.000000000000000000e+00,0.000000000000000000e+00,0.000000000000000000e+00,0.000000000000000000e+00,0.000000000000000000e+00,0.000000000000000000e+00,0.000000000000000000e+00,0.000000000000000000e+00,0.000000000000000000e+00,0.000000000000000000e+00,0.000000000000000000e+00,0.000000000000000000e+00,0.000000000000000000e+00,0.000000000000000000e+00,0.000000000000000000e+00,0.000000000000000000e+00,0.000000000000000000e+00,0.000000000000000000e+00,0.000000000000000000e+00,0.000000000000000000e+00,0.000000000000000000e+00,0.000000000000000000e+00,0.000000000000000000e+00,0.000000000000000000e+00,0.000000000000000000e+00,0.000000000000000000e+00,0.000000000000000000e+00,0.000000000000000000e+00,0.000000000000000000e+00,0.000000000000000000e+00,0.000000000000000000e+00,0.000000000000000000e+00,0.000000000000000000e+00,0.000000000000000000e+00,0.000000000000000000e+00,0.000000000000000000e+00,0.000000000000000000e+00,0.000000000000000000e+00,0.000000000000000000e+00,0.000000000000000000e+00,0.000000000000000000e+00,0.000000000000000000e+00,0.000000000000000000e+00,0.000000000000000000e+00,0.000000000000000000e+00
-3.697679027665766172e-01,-3.651905590243667010e-01,-3.553983617667912931e-01,-3.409825310782213514e-01,-3.226452744275590812e-01,-3.011829871850749130e-01,-2.774641554876403626e-01,-2.523967472940920054e-01,-2.268837154639067599e-01,-2.017714293348958632e-01,-1.778001157679831856e-01,-1.555651981459061362e-01,-1.354947233317375932e-01,-1.178438340696370407e-01,-1.027043283676074559e-01,-9.002581079622774818e-02,-7.964457910465819190e-02,-7.131681307421161575e-02,-6.475286260510020042e-02,-5.964901374234353459e-02,-5.571309275749340706e-02,-5.268190349221487517e-02,-5.033104953512296947e-02,-4.847903025118957543e-02,-4.698696453942822343e-02,-4.575438693724263872e-02,-4.471165659417142280e-02,-4.381045746121792206e-02,-4.301462972556127640e-02,-4.229330559309764370e-02,-4.161704159973843298e-02,-4.095632297571830116e-02,-4.028139850228144164e-02,-3.956286993963995663e-02,-3.877304939666198491e-02,-3.788804318514855246e-02,-3.688991945416339457e-02,-3.576819191936527614e-02,-3.452058629452602750e-02,-3.315361861255224779e-02,-3.168314414746624397e-02,-3.013441008434758830e-02,-2.854112270948217303e-02,-2.694347346407447927e-02,-2.538538438458935037e-02,-2.391136348272625972e-02,-2.256353207941603697e-02,-2.137931917214457023e-02,-2.038967957293061004e-02,-1.961713057796123788e-02,-1.907322468412164795e-02,-1.875596340137666851e-02,-1.864823480112036760e-02,-1.871824751345375556e-02,-1.892231793629848072e-02,-1.920962208744213945e-02,-1.952797490163821897e-02,-1.982949699824925957e-02,-2.007513743137690626e-02,-2.023740898825280785e-02,-2.030137611634888831e-02,-2.026455394803048510e-02,-2.013628303921168039e-02,-1.993646141438507741e-02,-1.969320156903182906e-02,-1.943943387047545462e-02,-1.920903782378605151e-02,-1.903310687939860704e-02,-1.893668252647479067e-02,-1.893620702781066353e-02,-1.903792070647612050e-02,-1.923731560012238023e-02,-1.951970903011170447e-02,-1.986192042512908637e-02,-2.023486165813818266e-02,-2.060678517413357114e-02,-2.094684946653553939e-02,-2.122846425173395904e-02,-2.143190090557454616e-02,-2.154594247859172723e-02,-2.156864391717097651e-02,-2.150754400007316366e-02,-2.137968428790972680e-02,-2.121116195928838058e-02,-2.103527919901744189e-02,-2.088877052132068202e-02,-2.080677702801294118e-02,-2.081777378297426651e-02,-2.093917131178487864e-02,-2.117380077277780312e-02,-2.150774604704246140e-02,-2.191057775588547973e-02,-2.233888123038385229e-02,-2.274272763191116653e-02,-2.307341820822984835e-02,-2.329052473302223661e-02,-2.336691387418045329e-02,-2.329129688793872208e-02,-2.306829623935075999e-02,-2.271608322764423829e-02,-2.226189262446733041e-02,-2.173656714529519432e-02,-2.116996809789200434e-02,-2.058850660456292697e-02,-2.001468490884172891e-02,-1.946779359469250764e-02,-1.896501321502941720e-02,-1.852237937933398984e-02,-1.815508041902209879e-02,-1.787667597857323792e-02,-1.769728859041064944e-02,-1.762139409797316286e-02,-1.764612906479105792e-02,-1.776086805960180870e-02,-1.794825628179728266e-02,-1.818619269375475536e-02,-1.844994811877116725e-02,-1.871394982130325513e-02,-1.895331705102685366e-02,-1.914535394100556551e-02,-1.927095471270049223e-02,-1.931572856933581189e-02,-1.927077414936149286e-02,-1.913323544881768978e-02,-1.890681078278897906e-02,-1.860220166093754998e-02,-1.823727177887655634e-02,-1.783658617079490749e-02,-1.742999426617939177e-02,-1.705015560826539031e-02,-1.672938023969449892e-02,-1.649631941700013121e-02,-1.637272687482155958e-02,-1.637028192879627642e-02,-1.648761071280888113e-02,-1.670800496303554913e-02,-1.699876639639985934e-02,-1.731325783441632973e-02,-1.759613034263230250e-02,-1.779092781137278992e-02,-1.784835255744695454e-02,-1.773356710120824187e-02,-1.743131672632330931e-02,-1.694775006489203720e-02,-1.630823348188792724e-02,-1.555170331688128342e-02,-1.472331237236474029e-02,-1.386726547306612115e-02,-1.302102965472796449e-02,-1.221149313031027334e-02,-1.145341933349833773e-02,-1.075029344091676421e-02,-1.009715167577126052e-02,-9.484359959445647428e-03,-8.901022663762248044e-03,-8.337171775922431333e-03,-7.784718263068178719e-03,-7.237569288418149727e-03,-6.691257945534662653e-03,-6.142321036378487094e-03,-5.587749734869890128e-03,-5.024972701016519085e-03,-4.452595828053755068e-03,-3.871556602422903618e-03,-3.286007624191438631e-03,-2.703341863332517185e-03,-2.133149848478281974e-03,-1.585363447537839910e-03,-1.068124587914986382e-03,-5.859532406174658989e-04,-1.386885396604516454e-04,2.786202755259994078e-04,6.751395353552751407e-04,1.063516090617382115e-03,1.459323680057948540e-03,1.880613568270309444e-03,2.347263269697142697e-03,2.879723177460397337e-03,3.496700782355048089e-03,4.211854352575743025e-03,5.030629778388628730e-03,5.948695210456982942e-03,6.952481907192284774e-03,8.021201610017472672e-03,9.129418899649965891e-03,1.024961969773545943e-02,1.135455764306430616e-02,1.241927165431253727e-02,1.342258493475212422e-02,1.434778181011313325e-02,1.518253625990564556e-02,1.591892428288534111e-02,1.655439934313527109e-02,1.709368277144645426e-02,1.755068356496780960e-02,1.794949328447960693e-02,1.832389721474380825e-02,1.871522587133143262e-02,1.916859182832425859e-02,1.972785261970497542e-02,2.043014909303898091e-02,2.130115924101538480e-02,2.235193553368685151e-02,2.357769631270744543e-02,2.495864999139265489e-02,2.646269273311377054e-02,2.804932675110184334e-02,2.967384756873307425e-02,3.129128475110481977e-02,3.286019208401554093e-02,3.434641241220012797e-02,3.572647791437826709e-02,3.698988160514971035e-02,3.813959169436293567e-02,3.919087083851675174e-02,4.016903880365173957e-02,4.110681277940632372e-02,4.204144141116022970e-02,4.301153305944139388e-02,4.405371999907850555e-02,4.519980397517089216e-02,4.647493925232588224e-02,4.789673342688725854e-02,4.947484154842929360e-02,5.121089205008562406e-02,5.309867772673490527e-02,5.512446365174183266e-02,5.726757857886259628e-02,5.950176438368957876e-02,6.179730090703722256e-02,6.412323970026591324e-02,6.644926014373406242e-02,6.874744112229917714e-02,7.099439743241209300e-02,7.317354670542251804e-02,7.527679569770671930e-02,7.730535448105393947e-02,7.926997945413531699e-02,8.119067587111485074e-02,8.309522061034795015e-02,8.501601885228173006e-02,8.698566507460844810e-02,8.903213091642077359e-02,9.117449047168219023e-02,9.341979954236982742e-02,9.576136744318655691e-02,9.817856383637135753e-02,1.006386273727683800e-01,1.031009387898576130e-01,1.055232160178954937e-01,1.078677766303464819e-01,1.101058056567064680e-01,1.122188500643016007e-01,1.141983428356873193e-01,1.160444485842194173e-01,1.177648875819784224e-01,1.193736210491258692e-01,1.208889890953629143e-01,1.223310851593696486e-01,1.237186608453840209e-01,1.250662824918442328e-01,1.263823813266813367e-01,1.276683782343856488e-01,1.289187038494133408e-01,1.301215465894389745e-01,1.312603462237449392e-01,1.323159782694545150e-01,1.332692547765391977e-01,1.341032802756053355e-01,1.348055020087613465e-01,1.353695040138609695e-01,1.357963818575018966e-01,1.360953123061875991e-01,1.362830854336295472e-01,1.363825597751470164e-01,1.364199875820022445e-01,1.364213221789082331e-01,1.364081450828315278e-01,1.363942909376472667e-01,1.363841252285636907e-01,1.363727030886708325e-01,1.363472249698450545e-01,1.362889642679290247e-01,1.361751443477873524e-01,1.359805295544193326e-01,1.356785886420388276e-01,1.352422745438903451e-01,1.346449085816544544e-01,1.338619699612716707e-01,1.328740652241875986e-01,1.316701545739908108e-01,1.302496110599200563e-01,1.286226719313794120e-01,1.268101746554636811e-01,1.248434540943350046e-01,1.227639295120121071e-01,1.206209039383411563e-01,1.184666299450426036e-01,1.163493768756110741e-01,1.143066503276966156e-01,1.123606334810881430e-01,1.105165315091243688e-01,1.087632369791970977e-01,1.070755705743733216e-01,1.054178138059673614e-01,1.037483267562925998e-01,1.020246174450969712e-01,1.002080431770164259e-01,9.826765607540821623e-02,9.618297288868402073e-02,9.394534277464451633e-02,9.155761812789184328e-02,8.903241228889165193e-02,8.638987089167581013e-02,8.365583965541302514e-02,8.086070115178098372e-02,7.803856651682899992e-02,7.522605843752855348e-02,7.245989829996116183e-02,6.977336196482707142e-02,6.719268658772657721e-02,6.473459732411017409e-02,6.240544459256072707e-02,6.020182188711194898e-02,5.811219674996899454e-02,5.611893005837942372e-02,5.420028888373445292e-02,5.233262994460236711e-02,5.049307031945724639e-02,4.866238292191764347e-02,4.682744159270699202e-02,4.498280262173134231e-02,4.313135381225437909e-02,4.128407281075554408e-02,3.945905692389094221e-02,3.768003453887948384e-02,3.597448364214129307e-02,3.437155479448371354e-02,3.290016953896325591e-02,3.158751984930272677e-02,3.045762106776936026e-02,2.952914485258838553e-02,2.881220093377868940e-02,2.830471422935582071e-02,2.798956567428825468e-02,2.783357104449809064e-02,2.778898569172500235e-02,2.779758563429763144e-02,2.779669977917738344e-02,2.772618755591805401e-02,2.753525710685519184e-02,2.718804250636792236e-02,2.666703612921458161e-02,2.597394487235705693e-02,2.512818277589816407e-02,2.416363871517688416e-02,2.312431312887078608e-02,2.205905171827907824e-02,2.101551084904480435e-02,2.003407941627297767e-02,1.914316936121445226e-02,1.835711645329146657e-02,1.767687714072784660e-02,1.709258683299579029e-02,1.658659736173753382e-02,1.613603562035157216e-02,1.571477851546821541e-02,1.529525889235522698e-02,1.485038283662179492e-02,1.435540462430081113e-02,1.378943702657471626e-02,1.313657351536316395e-02,1.238689770305846996e-02,1.153745834876757775e-02,1.059295761610140954e-02,9.566000348245699489e-03,8.476954698708639643e-03,7.353191402913205645e-03,6.227050672934306835e-03,5.132195258018811164e-03,4.098997643280337042e-03,3.150274299303670172e-03,2.298467710524851847e-03,1.544709106184990067e-03,8.796481553387254081e-04,2.856683129476687995e-04,-2.599641870441880332e-04,-7.813966304937483131e-04,-1.300242211198036121e-03,-1.831937914018508078e-03,-2.383346545712193478e-03,-2.952356886201521619e-03,-3.529384308216065077e-03,-4.100059536705615362e-03,-4.648479554587058200e-03,-5.160551629430098521e-03,-5.626738540112128685e-03,-6.043474437068511659e-03,-6.413150453274080003e-03,-6.743206224029228181e-03,-7.044729350718781716e-03,-7.330555346821776043e-03,-7.613021458167694953e-03,-7.901971608480407375e-03,-8.203637589153179102e-03,-8.520647877108090268e-03,-8.852944912522319604e-03,-9.199002552094133825e-03,-9.556701880641666272e-03,-9.923617704342609439e-03,-1.029682566535129740e-02,-1.067227934605174608e-02,-1.104366919580775444e-02,-1.140098773178767344e-02,-1.172954743558531771e-02,-1.201020359354780867e-02,-1.222099108366498516e-02,-1.233997433296210935e-02,-1.234898838268625940e-02,-1.223757312945984894e-02,-1.200586427236388816e-02,-1.166542326328041598e-02,-1.123813328268443747e-02,-1.075415085271268917e-02,-1.024956710383901314e-02,-9.763748922634275448e-03,-9.336401156262871814e-03,-9.004605557021401821e-03,-8.799709504529776641e-03,-8.743828859783817423e-03,-8.846427136006519004e-03,-9.101970075070849736e-03,-9.489469499330901656e-03,-9.974213657244476727e-03,-1.051136082065528415e-02,-1.105049495789765107e-02,-1.154007712482464296e-02,-1.193109199363206856e-02,-1.217975153791468063e-02,-1.224941214387308998e-02,-1.211185766239768202e-02,-1.174823418030827155e-02,-1.115019072207470811e-02,-1.032162569098503575e-02,-9.280752773048307411e-03,-8.061531154114726441e-03,-6.713329258171579252e-03,-5.298022979056771740e-03,-3.884424455178804841e-03,-2.540893295602465480e-03,-1.327794978767667805e-03,-2.915179211143899296e-04,5.390855616347293034e-04,1.154034536700619673e-03,1.561922689361931130e-03,1.788178221770315296e-03,1.871640495749210716e-03,1.859364849818794397e-03,1.800111851833009367e-03,1.737463632002499234e-03,1.703800895111436033e-03,1.716491682182876271e-03,1.777344375901300250e-03,1.875417885015895954e-03,1.992122675069688768e-03,2.106961115363572504e-03,2.202348716093580072e-03,2.266491733725689399e-03,2.294124726470993421e-03,2.285555432432441296e-03,2.244634569773103390e-03,2.176384595095404769e-03,2.085199332692100685e-03,1.974300097132151294e-03,1.846484025464543684e-03,1.705620832996283635e-03,1.558100663980464557e-03,1.413472593784612227e-03,1.283782032569418755e-03,1.181497274114306226e-03,1.116410608677116060e-03,1.092535991017478747e-03,1.106257279863999844e-03,1.146366644888688899e-03,1.195853809455720961e-03,1.234970700414823527e-03,1.244820146188025875e-03,1.210491051817242942e-03,1.123164121853967084e-03,9.813577573112161005e-04,7.916588348845596951e-04,5.688473166325567999e-04,3.351324960527083795e-04,1.186071639272671577e-04,-4.869885524075001886e-05,-1.330926963829367950e-04,-1.020897056273094766e-04,7.205557478405893155e-05,4.086011027056590545e-04,9.150650225067241943e-04,1.585116817137185302e-03,2.398005403066486799e-03,3.319563106398193408e-03,4.304537518400585253e-03,5.299988238723436253e-03,6.249597109257727830e-03,7.098634209764064992e-03,7.799021271455762981e-03,8.313757482705224494e-03,8.620078413978922091e-03,8.711060273038204529e-03,8.595691897049631547e-03,8.297429486651490202e-03,7.851249917400295736e-03,7.299657321163549074e-03,6.688502119416557187e-03,6.063255775520227063e-03,5.465860865489919652e-03,4.932052511849629658e-03,4.489206781726636473e-03,4.154864936811609490e-03,3.935791564893315400e-03,3.827218962111870928e-03,3.812455192067028265e-03,3.863874981376514989e-03,3.946356706614193195e-03,4.023152760324759207e-03,4.062709643923190228e-03,4.044056421537083751e-03,3.958817234328693493e-03,3.809706520446474488e-03,3.607239913818740661e-03,3.366712333271768692e-03,3.106279818165431656e-03,2.845799445830711309e-03,2.605887171512534951e-03,2.406961060943338046e-03,2.268193823979450154e-03,2.206407544256940804e-03,2.235219444746313656e-03,2.364719905750355296e-03,2.601237395836350410e-03,2.946159920379078350e-03,3.393423021794469020e-03,3.926649785472513358e-03,4.517540347889022721e-03,5.126433951208337475e-03,5.704913758570023460e-03,6.199906792400920741e-03,6.558822752252607170e-03,6.735163033354653848e-03,6.693808464510252187e-03,6.415323472209344229e-03,5.898751450422865493e-03,5.162233449970286304e-03,4.240983332765578366e-03,3.182994248498297214e-03,2.043632419181180306e-03,8.803738464007866390e-04,-2.515053170061824924e-04,-1.301971129814559350e-03,-2.228029348781186084e-03,-2.994682395811178351e-03,-3.575805771459943713e-03,-3.955510075951554697e-03,-4.129879637928316437e-03,-4.108458520547625566e-03,-3.914621157940530519e-03,-3.583948963678664640e-03,-3.160267277612031911e-03,-2.690080218020646750e-03,-2.216894633590802723e-03,-1.776504432384739922e-03,-1.393252522516203904e-03,-1.077058439810516443e-03,-8.218499775778324162e-04,-6.066226262242775322e-04,-3.997421210944678634e-04,-1.657756002416208973e-04,1.270349924694056667e-04,5.008241441581799420e-04,9.647982373343668957e-04,1.514102859321870198e-03,2.129836139085610185e-03,2.779934513880802024e-03,3.421473344272867121e-03,4.004925972028759024e-03,4.480270374337583239e-03,4.803999898588556632e-03,4.945491816417305064e-03,4.891234002481844971e-03,4.646230177950115905e-03,4.232895100683761215e-03,3.688178996259088537e-03,3.059457108153201908e-03,2.399347421783863069e-03,1.759664134425133544e-03,1.185274288423522095e-03,7.090776886270849485e-04,3.491823568770548365e-04,1.086611905646952311e-04,-2.262902367427748016e-05,-6.527260840608436381e-05,-4.749748217126608556e-05,-2.613191071694528195e-06,3.353116777891078815e-05,2.530904767397344996e-05,-5.966152922597361529e-05,-2.474805045025648418e-04,-5.553458183030162256e-04,-9.896644490250566285e-04,-1.545020582420242924e-03,-2.204176666496629553e-03,-2.939374209911201508e-03,-3.715062875046248013e-03,-4.491742362229158084e-03,-5.230045794535168567e-03,-5.894212805948816601e-03,-6.454840089308496245e-03,-6.891205424316245408e-03,-7.193115576856726374e-03,-7.362042397794754667e-03,-7.411546358836768218e-03,-7.366849013104003960e-03,-7.262864876680890161e-03,-7.140084998902433526e-03,-7.038829445527973808e-03,-6.993411978116511989e-03,-7.027594282081922779e-03,-7.151884432091366872e-03,-7.362705100961700576e-03,-7.643208217831473639e-03,-7.965408308683566765e-03,-8.293461182857248676e-03,-8.587973879759888685e-03,-8.810881354183191030e-03,-8.930113395023371592e-03,-8.923460851881082415e-03,-8.781377081125255751e-03,-8.508327951569773923e-03,-8.121993519223021443e-03,-7.650015425377016190e-03,-7.125189678915836398e-03,-6.580796248816787354e-03,-6.047069572357492533e-03,-5.548547518757255062e-03,-5.101824959179832378e-03,-4.713887804447616965e-03,-4.381591705069907625e-03,-4.092922629304107662e-03,-3.830455184598997084e-03,-3.576448868100342345e-03,-3.317833122538628617e-03,-3.049142116907194340e-03,-2.772493006549158357e-03,-2.495167147902392982e-03,-2.226328461864201039e-03,-1.974377072397796775e-03,-1.745542485296946392e-03,-1.543311289592555133e-03,-1.368004544428623416e-03,-1.216403427614084348e-03,-1.081923588593529427e-03,-9.557620868887810837e-04,-8.289728012856955415e-04,-6.949826938093331408e-04,-5.516359901877700752e-04,-4.017160897520105525e-04,-2.514865722543144482e-04,-1.078009329099431489e-04,2.500411453407702623e-05,1.471932734600507175e-04,2.639630163165923712e-04,3.840605356688137550e-04,5.174204297423931360e-04,6.729076109856034060e-04,8.570429990785285914e-04,1.073733543420621328e-03,1.324262176379419412e-03,1.606906268813185212e-03,1.916304522473973124e-03,2.243265682137686977e-03,2.575522567960025593e-03,2.899172687065510162e-03,3.200082112177703685e-03,3.464748703051917164e-03,3.680583234161388054e-03,3.835853566229682678e-03,3.919601650953727541e-03,3.921812351608473454e-03,3.834099129349953592e-03,3.651138458497919272e-03,3.372848245607277477e-03,3.006742770892746955e-03,2.569326238704394173e-03,2.085485473404913130e-03,1.585764083196575637e-03,1.102397532540565868e-03,6.652896420187303945e-04,2.986891441984841937e-04,1.868889965775226165e-05,-1.686730005527388335e-04,-2.688435082052005251e-04,-2.995022905139260055e-04,-2.900769343161464287e-04,-2.795274229017182107e-04,-3.124105917231541438e-04,-4.337408937513762431e-04,-6.834037587306613769e-04,-1.090914592805121734e-03,-1.671157369545363432e-03,-2.421623087335984716e-03,-3.321747500957907429e-03,-4.334723609455904542e-03,-5.411430611325542331e-03,-6.495512119556279967e-03,-7.528624484698586208e-03,-8.455264676868428156e-03,-9.226936734696232489e-03,-9.805506801774933195e-03,-1.016563139468786535e-02,-1.029629099832219015e-02,-1.020153668863153264e-02,-9.900468397596373302e-03,-9.426342019943060105e-03,-8.824674662130349914e-03,-8.150311652603657239e-03,-7.463462077353451470e-03,-6.824734524723428605e-03,-6.289598036291733918e-03,-5.903249219000848008e-03,-5.696832023769213792e-03,-5.685223502332350728e-03,-5.865852767351412839e-03,-6.218055240922414073e-03,-6.703406199060642397e-03,-7.268302718704743211e-03,-7.849577146885030124e-03,-8.382390329931568157e-03,-8.808528151266949852e-03,-9.083266681490363703e-03,-9.179658223384052837e-03,-9.089874687495953787e-03,-8.823969213313577822e-03,-8.406750900360058371e-03,-7.873373398091524505e-03,-7.264251815011647795e-03,-6.620153501201616816e-03,-5.978311900135807946e-03,-5.369963814628575700e-03,-4.819020604977780793e-03,-4.341293119374124709e-03,-3.944144246818214426e-03,-3.626897712092308750e-03,-3.382123766274277438e-03,-3.197498326496048086e-03,-3.057851529433318252e-03,-2.947256762204428140e-03,-2.851207219152810182e-03,-2.758783136996270126e-03,-2.664437128205264516e-03,-2.569006444826672005e-03,-2.479684029803386983e-03,-2.408785377724338445e-03,-2.371559490250325225e-03,-2.383908456085442537e-03,-2.460744361640811867e-03,-2.614694226886514223e-03,-2.854395808502521465e-03,-3.182498362899877434e-03,-3.594467795037577067e-03,-4.079056456492354509e-03,-4.620231343721265677e-03,-5.199715734017953776e-03,-5.799480185572511437e-03,-6.403868274464890112e-03,-7.001058853795483206e-03,-7.583598806162505229e-03,-8.148175867940339948e-03,-8.695261987103745233e-03,-9.229091484896262063e-03,-9.757679527929833535e-03,-1.029215644316446195e-02,-1.084505859802210176e-02,-1.142753902281019342e-02,-1.204556286392454052e-02,-1.269611800336423874e-02,-1.336566854343339099e-02,-1.403230643516617700e-02,-1.467057909291883191e-02,-1.525651988038573964e-02,-1.577113689232121849e-02,-1.620203869230161728e-02,-1.654350834021676986e-02,-1.679529027513351411e-02,-1.696039110613237547e-02,-1.704258017451947341e-02,-1.704464738791917899e-02,-1.696827823672533014e-02,-1.681561178824368327e-02,-1.659181491245706810e-02,-1.630769573965689875e-02,-1.598119736574120028e-02,-1.563669669418616889e-02,-1.530195876717488530e-02,-1.500391102357854362e-02,-1.476485428271868440e-02,-1.460008752585145904e-02,-1.451710065997401447e-02,-1.451611578706667530e-02,-1.459167376945914862e-02,-1.473470280319829316e-02,-1.493403492008264777e-02,-1.517646170338154445e-02,-1.544563487836191941e-02,-1.572128235172346594e-02,-1.597996508513386746e-02,-1.619738156305238277e-02,-1.635138268156404243e-02,-1.642485388213874020e-02,-1.640801498376475917e-02,-1.629995400586632670e-02,-1.610922595481728212e-02,-1.585332528734983287e-02,-1.555694536964103737e-02,-1.524922929262435313e-02,-1.496061075806385393e-02,-1.471996665089263592e-02,-1.455247941844883992e-02,-1.447823426989129289e-02,-1.451145162148765461e-02,-1.466021354387679262e-02,-1.492651324187743885e-02,-1.530655996595253927e-02,-1.579139065264096101e-02,-1.636773015857230507e-02,-1.701880347517643888e-02,-1.772484816617988373e-02,-1.846348815329540080e-02,-1.921039271294274625e-02,-1.994041118248305808e-02,-2.062908890843358559e-02,-2.125452699236304865e-02,-2.179946400671697870e-02,-2.225296619277308124e-02,-2.261102835074466771e-02,-2.287605680820794726e-02,-2.305568705114634243e-02,-2.316122455787677017e-02,-2.320589251346804119e-02,-2.320331182195450870e-02,-2.316661294572671184e-02,-2.310807985144584450e-02,-2.303897013295012550e-02,-2.296947767787619124e-02,-2.290896010951790768e-02,-2.286627363038960109e-02,-2.285010827262689767e-02,-2.286953652019517794e-02,-2.293464749391342650e-02,-2.305642145476853241e-02,-2.324519419427908962e-02,-2.350825633706963083e-02,-2.384791108136398788e-02,-2.426080112842058517e-02,-2.473838049265980957e-02,-2.526814241338929193e-02,-2.583534297461311316e-02,-2.642478571362406187e-02,-2.702202031366494894e-02,-2.761367375903653679e-02,-2.818730486832322912e-02,-2.873133249410678158e-02,-2.923516683876268424e-02,-2.968932153789494502e-02,-3.008533105303403191e-02,-3.041557340105750448e-02,-3.067329726727428818e-02,-3.085303728925414476e-02,-3.095122533820777316e-02,-3.096657312944339074e-02,-3.090000469991114121e-02,-3.075434879668478838e-02,-3.053428176047969997e-02,-3.024688896080792930e-02,-2.990267509069327242e-02,-2.951635881768731665e-02,-2.910679373932900313e-02,-2.869572731266009993e-02,-2.830553186910258687e-02,-2.795648796410570361e-02,-2.766455081207303338e-02,-2.744028627229944117e-02,-2.728874930630552365e-02,-2.720952151410392650e-02,-2.719666642354072461e-02,-2.723912479327217709e-02,-2.732197857593690604e-02,-2.742833166319010724e-02,-2.754118606823222418e-02,-2.764491480532119128e-02,-2.772625425101840971e-02,-2.777480805560513313e-02,-2.778315438909335910e-02,-2.774685402080669452e-02,-2.766459850672066054e-02,-2.753838156969965964e-02,-2.737326167410917069e-02,-2.717630416552719794e-02,-2.695473898965898563e-02,-2.671396998550508092e-02,-2.645631712697377180e-02,-2.618098038853586620e-02,-2.588494402072885614e-02,-2.556407831868763927e-02,-2.521392143502571709e-02,-2.483016195958589675e-02,-2.440916236834568889e-02,-2.394887257138087269e-02,-2.345029314216509966e-02,-2.291924655074647002e-02,-2.236774712121444506e-02,-2.181418516827127174e-02,-2.128202590195963848e-02,-2.079733346100308064e-02,-2.038564666257696237e-02,-2.006849909878017854e-02,-1.985971511179070517e-02,-1.976203737442032773e-02,-1.976518459059663224e-02,-1.984607190108020683e-02,-1.997077815044220189e-02,-2.009714139145266087e-02,-2.017710481950429555e-02,-2.015861851272341895e-02,-1.998757793226493135e-02,-1.961067845190079054e-02,-1.897983866207702056e-02,-1.805791959103196509e-02,-1.682446570228749924e-02,-1.527989289059177719e-02,-1.344695343754596234e-02,-1.136902953931303445e-02,-9.105688585806103949e-03,-6.726669532702058037e-03,-4.305621036521781186e-03,-1.914402840753956416e-03,3.819350704309485843e-04,2.529530109439121280e-03,4.489137005487255430e-03,6.238317752534612050e-03,7.772495071661201203e-03,9.105035297847697065e-03,1.026612946795696195e-02,1.129990069215212542e-02,1.225946403548856291e-02,1.320053348025775584e-02,1.417473984530714937e-02,1.522380108407798971e-02,1.637556454290576766e-02,1.764262044517064115e-02,1.902339355709785698e-02,2.050485371416564673e-02,2.206574213673787380e-02,2.367946347274111143e-02,2.531629371934940309e-02,2.694500853770204207e-02,2.853431802266990364e-02,3.005444923788641934e-02,3.147865245206447893e-02,3.278392566592411989e-02,3.395083140485047335e-02,3.496348825709139074e-02,3.581110902142359970e-02,3.649139883952258467e-02,3.701482965043800116e-02,3.740815396263093284e-02,3.771547921469350223e-02,3.799578345978436161e-02,3.831688716955435753e-02,3.874698102069830397e-02,3.934533130271394841e-02,4.015382098288820811e-02,4.119072064821525936e-02,4.244762450290350680e-02,4.388994623671601397e-02,4.546091639155915021e-02,4.708876280746803616e-02,4.869646745132328453e-02,5.021288455003908302e-02,5.158323085523832535e-02,5.277657629827355035e-02,5.378854382570158466e-02,5.463899577669053403e-02,5.536616757161300778e-02,5.601945066944216678e-02,5.665239654879788284e-02,5.731590323384208596e-02,5.805058668561498963e-02,5.887871864561309426e-02,5.979864619930241876e-02,6.078499774254494947e-02,6.179519758030189991e-02,6.277932663673048419e-02,6.368912161343275036e-02,6.448344938780072033e-02,6.513004757697167524e-02,6.560464418473882509e-02,6.588850320028133423e-02,6.596525797226736321e-02,6.581842918098987361e-02,6.543141234512991899e-02,6.479072914488007151e-02,6.389140535845996838e-02,6.274213476581898263e-02,6.136823359939567318e-02,5.981152528912967586e-02,5.812708937471591786e-02,5.637711469476062304e-02,5.462265457478932690e-02,5.291503912415164435e-02,5.128900247076571134e-02,4.975868579720072599e-02,4.831658719239787653e-02,4.693508547187671964e-02,4.557004792503144969e-02,4.416605258056840316e-02,4.266306700632819388e-02,4.100437305668334920e-02,3.914449960822142388e-02,3.705506147545743756e-02,3.472710622129021596e-02,3.217016362610512076e-02,2.940906132043423840e-02,2.647940642529112570e-02,2.342236707115647951e-02,2.027964328580015782e-02,1.708977513088025604e-02,1.388658486500477310e-02,1.069984520079820221e-02,7.557492080909708476e-03,4.487822254299436361e-03,1.519714668140081590e-03,-1.320006905182212259e-03,-4.010735868745655790e-03,-6.541150956993728970e-03,-8.909462941725307047e-03,-1.112099051623261468e-02,-1.318447400205657177e-02,-1.510882430803175448e-02,-1.690147680395799948e-02,-1.856844189898673378e-02,-2.011527347461092644e-02,-2.154817104012510254e-02,-2.287494194898657268e-02,-2.410564495506601138e-02,-2.525239349267454497e-02,-2.632800700165822613e-02,-2.734408050809418109e-02,-2.830945669880782778e-02,-2.922963529520273759e-02,-3.010713029092389192e-02,-3.094248459890707251e-02,-3.173526870523668553e-02,-3.248431835533108214e-02,-3.318717976135962533e-02,-3.383947391894932821e-02,-3.443479020669661106e-02,-3.496510689416082451e-02,-3.542133470728689448e-02,-3.579361267346144182e-02,-3.607131782509801626e-02,-3.624314872820577627e-02,-3.629787384015507185e-02,-3.622610042278149450e-02,-3.602266735769425049e-02,-3.568870613528953711e-02,-3.523272208778348291e-02,-3.467074948775885485e-02,-3.402587692315769269e-02,-3.332719122243645027e-02,-3.260801408309064314e-02,-3.190352456208716408e-02,-3.124812773309330882e-02,-3.067284626131983050e-02,-3.020287641944057952e-02,-2.985558988208470571e-02,-2.963935435565809642e-02,-2.955335382771137956e-02,-2.958838188923671592e-02,-2.972849359038417030e-02,-2.995320980437916544e-02,-3.023962228779629446e-02,-3.056367410813400770e-02,-3.090047837572778774e-02,-3.122440335765983357e-02,-3.150998551375502194e-02,-3.173430075562931607e-02,-3.188057215529849220e-02,-3.194194126982036197e-02,-3.192397096018702307e-02,-3.184489990564755985e-02,-3.173359737018315724e-02,-3.162580393957167835e-02,-3.155919577563733730e-02,-3.156747907929054187e-02,-3.167380596173535040e-02,-3.188442224901363170e-02,-3.218392848250763855e-02,-3.253310996914141051e-02,-3.286919526864091196e-02,-3.310781780170302113e-02,-3.314654034670952432e-02,-3.287070100400953099e-02,-3.216236898431091423e-02,-3.091246980360089561e-02,-2.903549323872597551e-02,-2.648557717230861849e-02,-2.327171233816848622e-02,-1.946906423602264014e-02,-1.522394334842552821e-02,-1.075132217934092298e-02,-6.324986456893723699e-03,-2.261258328587742884e-03,1.101928611069801812e-03,3.428232090206425470e-03,4.406418059059340371e-03,3.773291459122310280e-03,1.335408628364801332e-03,-3.011566347686066378e-03,-9.266797433414882337e-03,-1.731174325038949482e-02,-2.690189585689852989e-02,-3.766517263147645123e-02,-4.911007005688038801e-02,-6.064522696424750475e-02,-7.160933527548671296e-02,-8.130830052416856968e-02,-8.905624499426904872e-02,-9.421765769911839838e-02,-9.624794299947135590e-02,-9.472870840714747720e-02,-8.939475258365002508e-02,-8.015256203076903674e-02,-6.709216424259861755e-02,-5.049324999704723343e-02,-3.082461760052165184e-02,-8.735838324037892982e-03,1.495912685323372987e-02,3.930644086968053397e-02,6.324503445113170697e-02,8.564654937253809996e-02,1.053606272385420178e-01,1.212631533374645271e-01,1.323059922815733591e-01,1.375683209777112948e-01,1.363103180056951802e-01,1.280294421707568742e-01,1.125176852502875330e-01,8.991321709920803429e-02,6.073255217366309300e-02,2.586636881211442848e-02,-1.347112367496000086e-02,-5.583550221209117315e-02,-9.967082253002232384e-02,-1.434294433420147119e-01,-1.856713446240088605e-01,-2.251315181354992256e-01,-2.607554871457721801e-01,-2.917101925159244491e-01,-3.173793527266029479e-01,-3.373510164100002595e-01,-3.514026934350343856e-01,-3.594869974158858561e-01,0.000000000000000000e+00,0.000000000000000000e+00,0.000000000000000000e+00,0.000000000000000000e+00,0.000000000000000000e+00,0.000000000000000000e+00,0.000000000000000000e+00,0.000000000000000000e+00,0.000000000000000000e+00,0.000000000000000000e+00,0.000000000000000000e+00,0.000000000000000000e+00,0.000000000000000000e+00,0.000000000000000000e+00,0.000000000000000000e+00,0.000000000000000000e+00,0.000000000000000000e+00,0.000000000000000000e+00,0.000000000000000000e+00,0.000000000000000000e+00,0.000000000000000000e+00,0.000000000000000000e+00,0.000000000000000000e+00,0.000000000000000000e+00,0.000000000000000000e+00,0.000000000000000000e+00,0.000000000000000000e+00,0.000000000000000000e+00,0.000000000000000000e+00,0.000000000000000000e+00,0.000000000000000000e+00,0.000000000000000000e+00,0.000000000000000000e+00,0.000000000000000000e+00,0.000000000000000000e+00,0.000000000000000000e+00,0.000000000000000000e+00,0.000000000000000000e+00,0.000000000000000000e+00,0.000000000000000000e+00,0.000000000000000000e+00,0.000000000000000000e+00,0.000000000000000000e+00,0.000000000000000000e+00,0.000000000000000000e+00,0.000000000000000000e+00,0.000000000000000000e+00,0.000000000000000000e+00,0.000000000000000000e+00,0.000000000000000000e+00,0.000000000000000000e+00,0.000000000000000000e+00,0.000000000000000000e+00,0.000000000000000000e+00,0.000000000000000000e+00,0.000000000000000000e+00,0.000000000000000000e+00,0.000000000000000000e+00,0.000000000000000000e+00,0.000000000000000000e+00,0.000000000000000000e+00,0.000000000000000000e+00
