-3.908571479288487360e-01,-3.862527768041090215e-01,-3.774380229957346455e-01,-3.649889058362663086e-01,-3.494682842473401663e-01,-3.314324749007064863e-01,-3.114445556293686246e-01,-2.900851406281563238e-01,-2.679525027467788978e-01,-2.456480613032113181e-01,-2.237492042012637350e-01,-2.027769973267886661e-01,-1.831679876872417401e-01,-1.652556127269638742e-01,-1.492613174025393952e-01,-1.352933514845285623e-01,-1.233525160068012771e-01,-1.133450144535695370e-01,-1.051017009439447480e-01,-9.840205681369926238e-02,-9.300045251294693227e-02,-8.865108757370201986e-02,-8.512766913392130763e-02,-8.223579908517107684e-02,-7.981899604835693274e-02,-7.776048602326871007e-02,-7.598188359829606553e-02,-7.443903150845218586e-02,-7.311539753268832265e-02,-7.201323423739132423e-02,-7.114253264596866189e-02,-7.050865862074459645e-02,-7.010074923314847661e-02,-6.988364117110926199e-02,-6.979574703274897540e-02,-6.975359518171514450e-02,-6.966193538672163510e-02,-6.942732603688660242e-02,-6.897256207481633483e-02,-6.824935597914735808e-02,-6.724737142635631160e-02,-6.599817972635788066e-02,-6.457302950968002442e-02,-6.307412986858750015e-02,-6.162028401477394335e-02,-6.032881506236845159e-02,-5.929681685748747905e-02,-5.858546909683524234e-02,-5.821076607069203268e-02,-5.814268557718461905e-02,-5.831299232769179830e-02,-5.862947979013108379e-02,-5.899237290654449350e-02,-5.930836587852453962e-02,-5.949971302403478379e-02,-5.950885970451705309e-02,-5.930131951728868228e-02,-5.886921663974582775e-02,-5.823552406725822361e-02,-5.745664698526784658e-02,-5.662023908606624023e-02,-5.583626099110543251e-02,-5.522190028056189054e-02,-5.488390142536991867e-02,-5.490305954583309805e-02,-5.532404342317468610e-02,-5.615062310838309090e-02,-5.734434400397912107e-02,-5.882522297899552693e-02,-6.047494524007921562e-02,-6.214389536816276871e-02,-6.366264434522549143e-02,-6.485724625586125613e-02,-6.556648539486106819e-02,-6.565867863074631439e-02,-6.504611331348596204e-02,-6.369573170021546049e-02,-6.163478474481814962e-02,-5.895074857004355129e-02,-5.578575977686520138e-02,-5.232630811082822353e-02,-4.878942294205085989e-02,-4.540740910742276093e-02,-4.241284096930415110e-02,-4.002387775460788943e-02,-3.842941079816535044e-02,-3.777479574974877685e-02,-3.814970451476519531e-02,-3.957894080103369766e-02,-4.201664548213501771e-02,-4.534508281706824823e-02,-4.937958998116239590e-02,-5.388014768425807705e-02,-5.856840043331149742e-02,-6.314807830102468766e-02,-6.732647053840248863e-02,-7.083456802494128568e-02,-7.344451949322042261e-02,-7.498493917385998242e-02,-7.535509895916167600e-02,-7.453710950456177153e-02,-7.260276189479832054e-02,-6.971115325246127203e-02,-6.609545075339125220e-02,-6.204066578540185645e-02,-5.785599845653324053e-02,-5.384468471487137420e-02,-5.027406311875382700e-02,-4.734944416071781154e-02,-4.519543807675598102e-02,-4.384754144952524718e-02,-4.325581845348517446e-02,-4.330058099587950210e-02,-4.381653309893240866e-02,-4.461886505096703676e-02,-4.552529249900910679e-02,-4.637207149630578201e-02,-4.702523937935276094e-02,-4.738812927225387328e-02,-4.740508545987352079e-02,-4.706113372361806629e-02,-4.637755260367182331e-02,-4.540425466978057628e-02,-4.421139163199321737e-02,-4.288249181252576370e-02,-4.150954253868369831e-02,-4.018900185201981778e-02,-3.901763222291614736e-02,-3.808731555338919217e-02,-3.747843577928450243e-02,-3.725243796072265356e-02,-3.744477709261116727e-02,-3.805890601003994456e-02,-3.906183850243225009e-02,-4.038279849562026458e-02,-4.191671222432571259e-02,-4.353329382515356422e-02,-4.509079779010110450e-02,-4.645124919162975374e-02,-4.749314106979600492e-02,-4.811988798156668218e-02,-4.826495741630914410e-02,-4.789486914880081853e-02,-4.701048304473048889e-02,-4.564667496164408894e-02,-4.387003666561726384e-02,-4.177361133540764826e-02,-3.946815817675998483e-02,-3.707097895883946365e-02,-3.469439811861214917e-02,-3.243604836238245248e-02,-3.037259679037504836e-02,-2.855735549359064707e-02,-2.702072185478305438e-02,-2.577197458600324551e-02,-2.480176481274565248e-02,-2.408504332378810439e-02,-2.358389597222388528e-02,-2.325035489154805846e-02,-2.303023496707993709e-02,-2.286846473959640302e-02,-2.271482704828371724e-02,-2.252841674070361205e-02,-2.227958985921713389e-02,-2.194900917554051464e-02,-2.152445344640237929e-02,-2.099685742441290484e-02,-2.035671406279428164e-02,-1.959118324282851584e-02,-1.868254243558363156e-02,-1.760928452683804130e-02,-1.635025799415161171e-02,-1.489016551972557889e-02,-1.322374153342301302e-02,-1.135681109074267864e-02,-9.304107546770816820e-03,-7.085212391504642528e-03,-4.720972656541751016e-03,-2.232879702902288137e-03,3.531273803239884032e-04,2.999093797576232040e-03,5.647289509151998121e-03,8.217720992503872030e-03,1.061449678435498652e-02,1.273964262207685424e-02,1.450947834055618668e-02,1.586905908264168302e-02,1.680201036012652152e-02,1.733431014062878847e-02,1.753214384777507240e-02,1.749586614714282798e-02,1.735224847586404676e-02,1.724549675088444395e-02,1.732655476717323909e-02,1.774106436770292450e-02,1.861747008353431890e-02,2.005672206493454637e-02,2.212424290187605530e-02,2.484442140559342885e-02,2.819813206072842651e-02,3.212389918213176543e-02,3.652289877839449972e-02,4.126743525450023153e-02,4.621195108710198646e-02,5.120470623460135484e-02,5.609802673714135712e-02,6.075671564809369263e-02,6.506582298721241830e-02,6.893776096855916413e-02,7.231671208235564141e-02,7.517908641649229118e-02,7.753169565755511916e-02,7.941057117588805336e-02,8.088114308415085552e-02,8.203682563407717343e-02,8.299182475723607122e-02,8.386700421587839349e-02,8.477256940321120648e-02,8.579368439147598557e-02,8.698289210807207128e-02,8.835895538573497465e-02,8.990927726637196193e-02,9.159344910525848982e-02,9.334739110574395704e-02,9.508922203991442001e-02,9.672821440557334560e-02,9.817692072895910227e-02,9.936490232450619076e-02,1.002515111476780518e-01,1.008349971211790902e-01,1.011557723498923284e-01,1.012932423080577654e-01,1.013577758446172067e-01,1.014805576290118694e-01,1.018032285564908213e-01,1.024672210752703705e-01,1.036015210761693089e-01,1.053085070651439276e-01,1.076494403142345957e-01,1.106319070525141751e-01,1.142009786568962681e-01,1.182354787048568168e-01,1.225506734527346125e-01,1.269084413735439842e-01,1.310353001203072298e-01,1.346469973258528630e-01,1.374760703327940758e-01,1.392978751438780638e-01,1.399520165044719211e-01,1.393582004483580328e-01,1.375262245451044085e-01,1.345591206555004637e-01,1.306480647188751620e-01,1.260584454664604726e-01,1.211074408622037635e-01,1.161339023264992970e-01,1.114625496250106762e-01,1.073673169051957005e-01,1.040410174252396347e-01,1.015772768722271180e-01,9.996648734624449806e-02,9.910404609809314591e-02,9.880808241585936624e-02,9.884391949000999322e-02,9.895263149254211743e-02,9.888096965833260976e-02,9.840925653756459057e-02,9.737324961447803295e-02,9.567694637669155178e-02,9.329610972870351626e-02,9.027499814265341205e-02,8.671890028369372283e-02,8.278315179704749671e-02,7.865839534407971512e-02,7.455267024580965185e-02,7.067187728694769577e-02,6.720088966833943911e-02,6.428824729194103360e-02,6.203637694519786860e-02,6.049626487791964768e-02,5.966422886681745780e-02,5.948081332100065705e-02,5.983402335923104776e-02,6.056839374804758730e-02,6.149935843174268030e-02,6.243069723719035791e-02,6.317236608713862334e-02,6.355705472608469409e-02,6.345468178664080694e-02,6.278343178772635702e-02,6.151514066403421244e-02,5.967350909467589865e-02,5.732575970893148687e-02,5.457043720783463087e-02,5.152441955131100565e-02,4.831089272477213925e-02,4.504882266192267171e-02,4.184451151715492395e-02,3.878597055788608750e-02,3.593973878933486715e-02,3.334875765182812590e-02,3.103075712650039952e-02,2.897841677015240355e-02,2.716326246705198788e-02,2.554412885677579195e-02,2.407884560466706445e-02,2.273602882185042293e-02,2.150358365456236584e-02,2.039168424555750855e-02,1.942984434655148362e-02,1.865970993612406023e-02,1.812642709271088115e-02,1.787076624359696178e-02,1.792259729019727438e-02,1.829557407700312457e-02,1.898274243781269618e-02,1.995274981068829306e-02,2.114705975754091818e-02,2.247955573926940093e-02,2.383973132792334068e-02,2.509936726631604303e-02,2.612159860425982902e-02,2.677149799093795149e-02,2.692791100327718984e-02,2.649595142367786385e-02,2.541871899901221657e-02,2.368643781342986629e-02,2.134127485630017348e-02,1.847671611391672394e-02,1.523169368095901414e-02,1.178074480762520554e-02,8.321846755622423070e-03,5.063589643087209637e-03,2.212787960525756503e-03,-3.770751611542917246e-05,-1.522101592731364087e-03,-2.115748175422768954e-03,-1.748241757428773335e-03,-4.127428867679557370e-04,1.829927051679813062e-03,4.852638995888021618e-03,8.469013869840003039e-03,1.244615502069896205e-02,1.652163632686080505e-02,2.042265351776496873e-02,2.388622410384261610e-02,2.668009189639706027e-02,2.862264871888264145e-02,2.959834231325507437e-02,2.956598647839525640e-02,2.855996396558738160e-02,2.668469708368262708e-02,2.410221405890140139e-02,2.101456455386101901e-02,1.764508849269712243e-02,1.422128130540849418e-02,1.095891110645214744e-02,8.046310914989288424e-03,5.629579044336551798e-03,3.801004894109841908e-03,2.592950421609734653e-03,1.978156690409896366e-03,1.876217284941105986e-03,2.165054762935655647e-03,2.695390294475340145e-03,3.306503949902058620e-03,3.842863406785503901e-03,4.170895665317822520e-03,4.193451931394789368e-03,3.859139425121730499e-03,3.165206608237272016e-03,2.154696775104137339e-03,9.096938457292919836e-04,-4.581147167003143559e-04,-1.819103208421537056e-03,-3.038422653160960038e-03,-3.987987110952273540e-03,-4.556830517727694478e-03,-4.659636812488707376e-03,-4.242923195531057498e-03,-3.288152261765036211e-03,-1.811841132419761370e-03,1.358305348186259419e-04,2.472102992112111541e-03,5.082156435578666885e-03,7.820261277068533273e-03,1.051309456370131887e-02,1.296683603906163135e-02,1.497901035260703131e-02,1.635455401912987508e-02,1.692448914882591082e-02,1.656483724189610623e-02,1.521293700522520324e-02,1.287885087323389736e-02,9.650165647540280556e-03,5.688492570138457133e-03,1.217115777886007078e-03,-3.497915896577069410e-03,-8.169451066048291285e-03,-1.251130476334945223e-02,-1.626000468558593676e-02,-1.919513453572038730e-02,-2.115642984253316566e-02,-2.205594983794068042e-02,-2.188380753311669827e-02,-2.070574840004277967e-02,-1.865192069331379418e-02,-1.589915600586777264e-02,-1.265162771590676305e-02,-9.124150347580808895e-03,-5.529480468590614040e-03,-2.068623021891736156e-03,1.077984209068646006e-03,3.760567908645816824e-03,5.871426134825063342e-03,7.354455427813936380e-03,8.208940793772941114e-03,8.486076013233595158e-03,8.278764264562752870e-03,7.706018696546758882e-03,6.894182624358321555e-03,5.958457981617946118e-03,4.988733077857808278e-03,4.042319849457352496e-03,3.143266290547670587e-03,2.285515236586472317e-03,1.437120228460862705e-03,5.449593868737277400e-04,-4.579951053645752411e-04,-1.640532883844522411e-03,-3.056805324774079704e-03,-4.729982800019331794e-03,-6.641437445701413311e-03,-8.728801540800698935e-03,-1.089274030829353278e-02,-1.300930533669986990e-02,-1.494356694047657697e-02,-1.656166021537385999e-02,-1.774121651039214237e-02,-1.838154048279980537e-02,-1.841417136886046302e-02,-1.781357330230930874e-02,-1.660659266950703997e-02,-1.487684991353021950e-02,-1.275933359358490463e-02,-1.042423853887517425e-02,-8.054467101545587093e-03,-5.823191853094401675e-03,-3.875846121429133741e-03,-2.318051992864796681e-03,-1.210019064554711515e-03,-5.678325423681175339e-04,-3.702765848662650143e-04,-5.676272300476079349e-04,-1.089551418247194491e-03,-1.852143407472431769e-03,-2.765594475280555055e-03,-3.743047289051755835e-03,-4.709548060473143886e-03,-5.609248725517698708e-03,-6.409491533992828921e-03,-7.101424209062781254e-03,-7.697405086216317985e-03,-8.225301819966992709e-03,-8.719605755281575193e-03,-9.210461932793850490e-03,-9.713856736276418186e-03,-1.022660896106283683e-02,-1.072729694856200747e-02,-1.118127130572496922e-02,-1.154715510901170063e-02,-1.178346623990837207e-02,-1.185522361274733531e-02,-1.174033763672966899e-02,-1.143438402486728761e-02,-1.095170980506706034e-02,-1.032221334383036718e-02,-9.585209101635421350e-03,-8.782553359888443933e-03,-7.953011676888499526e-03,-7.129102798320239784e-03,-6.336416736002208061e-03,-5.594885361812853945e-03,-4.921628973172253660e-03,-4.334343304819553329e-03,-3.853069427282103127e-03,-3.498337854481216921e-03,-3.285898317141900619e-03,-3.220980717469463205e-03,-3.295367696727051487e-03,-3.488421396244012658e-03,-3.771243624341494814e-03,-4.112214855533005871e-03,-4.481655165368229714e-03,-4.853943516271162426e-03,-5.207544707308475393e-03,-5.525024015307709001e-03,-5.794066144610757023e-03,-6.007933150673675816e-03,-6.163152318378294081e-03,-6.254567104359832347e-03,-6.270195322546144416e-03,-6.187837532171254831e-03,-5.973692077050566512e-03,-5.583194427147216560e-03,-4.965082677142560776e-03,-4.069019962291278020e-03,-2.855508589736984165e-03,-1.306267696669912576e-03,5.664339276369843466e-04,2.713167652574375015e-03,5.045380060308482517e-03,7.439077407268137286e-03,9.743597143691344956e-03,1.179383094881486516e-02,1.342387524763181267e-02,1.448079871103403332e-02,1.483888131152949486e-02,1.441462804321790546e-02,1.317994724491780394e-02,1.116897515975619204e-02,8.476018166300723286e-03,5.245737004966217858e-03,1.659008707043648032e-03,-2.082344448544028604e-03,-5.770933603637694309e-03,-9.209396945600778137e-03,-1.222512112615306915e-02,-1.468225995829872295e-02,-1.649026233768333127e-02,-1.760866380186537974e-02,-1.804716619315632764e-02,-1.785990588887143016e-02,-1.713433283198380688e-02,-1.597715196256049852e-02,-1.450024136589201165e-02,-1.280831762799194279e-02,-1.098976164775310876e-02,-9.112581907492978139e-03,-7.226392996876117997e-03,-5.368697620831702419e-03,-3.572449345885885148e-03,-1.872546761341706799e-03,-3.101276503545356269e-04,1.066106207457596716e-03,2.202858020407586458e-03,3.050306033003121961e-03,3.573236758432896381e-03,3.760599831925206561e-03,3.629596989962677062e-03,3.223609927699977711e-03,2.605777416080005612e-03,1.850693556586543173e-03,1.036358476738850030e-03,2.377389260731090732e-04,-4.778433692468804527e-04,-1.053992626969625862e-03,-1.447238922456062921e-03,-1.627201017363957922e-03,-1.575030131388427098e-03,-1.281916834991697444e-03,-7.503321496112622200e-04,1.047660073414768793e-06,9.316112587171136456e-04,1.977335888693859157e-03,3.056445963984653034e-03,4.080583020291114749e-03,4.967211402675555248e-03,5.649664761099511961e-03,6.082993059204315142e-03,6.245122178016745094e-03,6.134935909330197293e-03,5.770483762453669507e-03,5.188781988860442264e-03,4.445428775336788228e-03,3.611099258182149697e-03,2.763295375512745278e-03,1.974638903907296583e-03,1.301851935969811991e-03,7.792222019805820953e-04,4.164870696200748405e-04,1.981248036210232853e-04,8.254732462663422958e-05,3.602333872494928400e-06,-1.217060274765345465e-04,-3.785759759705282709e-04,-8.375139906882784991e-04,-1.542096750999940582e-03,-2.505193571986101455e-03,-3.712366468723786277e-03,-5.128202537023873395e-03,-6.701349941479408864e-03,-8.366310032160666557e-03,-1.004333240430058116e-02,-1.163943222266325579e-02,-1.305227622106569681e-02,-1.417675405109198108e-02,-1.491355180630432424e-02,-1.517901279343781759e-02,-1.491512245993559596e-02,-1.409820757818727212e-02,-1.274493299672231107e-02,-1.091445085336453964e-02,-8.706492625208596403e-03,-6.255918279176731281e-03,-3.724166251741484104e-03,-1.287909944699002895e-03,8.747912056077567118e-04,2.600275935329536461e-03,3.755273360788050855e-03,4.250426951690395617e-03,4.049719448723807479e-03,3.176300807209587757e-03,1.715431786885262362e-03,-1.872479617515407976e-04,-2.335920103623812666e-03,-4.504976992457886652e-03,-6.466116105190971436e-03,-8.015273536619668682e-03,-8.993840747125737486e-03,-9.302128623137900440e-03,-8.905474902681821681e-03,-7.834432184563568102e-03,-6.180473282639317896e-03,-4.087807322872074288e-03,-1.741346475754285529e-03,6.492381152497209065e-04,2.869508923397694460e-03,4.723371800791975779e-03,6.056083271260627975e-03,6.772807298475364696e-03,6.849423636939918660e-03,6.334212419427857552e-03,5.340887571235622931e-03,4.034740577169657755e-03,2.613921685150024342e-03,1.287733010076687638e-03,2.539444305569955266e-04,-3.227445012325435062e-04,-3.289278926288988734e-04,2.849057041435148823e-04,1.499118566078171556e-03,3.227322791545447159e-03,5.326168194410603983e-03,7.612713124490788456e-03,9.888469919600160335e-03,1.196610244990207669e-02,1.369337602800194294e-02,1.497104464782077725e-02,1.576388216604919512e-02,1.610498075547733832e-02,1.609362347330975732e-02,1.588674361752799233e-02,1.568322186128456516e-02,1.570099145914735303e-02,1.615023676692498369e-02,1.720875624791674829e-02,1.900420186398643282e-02,2.160388906635761497e-02,2.501046153533642916e-02,2.916208890113187319e-02,3.393699908190191128e-02,3.916247972209687539e-02,4.462815835669889375e-02,5.010275956780875506e-02,5.535316187568640328e-02,6.016468833962849289e-02,6.436126049039690711e-02,6.782296237424328966e-02,7.049800076981369013e-02,7.240683409302936524e-02,7.363758955866113454e-02,7.433317913743746341e-02,7.467195588827633956e-02,7.484514343692706684e-02,7.503509799340470077e-02,7.539806056802234036e-02,7.605313771791664956e-02,7.707739191947565738e-02,7.850628335402637381e-02,8.033771202568520953e-02,8.253668813569835228e-02,8.503888928700792382e-02,8.775420865050598263e-02,9.057262533362468726e-02,9.337415338891209837e-02,9.604323185779584104e-02,9.848565241612421139e-02,1.006440964846125191e-01,1.025082358932342952e-01,1.041169227813002196e-01,1.055520748634312667e-01,1.069258549723127866e-01,1.083640472683588402e-01,1.099885072284967485e-01,1.119007321238848635e-01,1.141680196198920361e-01,1.168133770551557787e-01,1.198100075762200400e-01,1.230809670133732048e-01,1.265040707120883290e-01,1.299210987250789540e-01,1.331497650286556644e-01,1.359973093544018796e-01,1.382755627355861106e-01,1.398182268993885535e-01,1.405001270804820679e-01,1.402550252004222120e-01,1.390868641928027505e-01,1.370717825905859444e-01,1.343520702579779624e-01,1.311242155143976518e-01,1.276215786146846776e-01,1.240916333262531562e-01,1.207698390463063098e-01,1.178549808070330773e-01,1.154912245154003092e-01,1.137591054844000332e-01,1.126733029225900906e-01,1.121835553642758498e-01,1.121778574943217005e-01,1.124900620319890104e-01,1.129131792337404877e-01,1.132168114953539390e-01,1.131664970050323404e-01,1.125440615904553660e-01,1.111677997630134418e-01,1.089094674875320523e-01,1.057050816929942655e-01,1.015585361279682797e-01,9.653832555600368182e-02,9.076790533405229566e-02,8.441127830167476087e-02,7.765729444087084155e-02,7.070613234125022739e-02,6.375822139780065734e-02,5.700300767722673440e-02,5.060625743230692808e-02,4.469800367720337675e-02,3.936444341585693812e-02,3.464572295064551055e-02,3.053943147405982841e-02,2.700736460858225996e-02,2.398205900873903035e-02,2.137177582328079681e-02,1.906609971323253161e-02,1.694457326711370365e-02,1.488763889011661748e-02,1.278675669898800965e-02,1.055124471680838824e-02,8.111739972148958311e-03,5.421884271693583508e-03,2.459958336700820373e-03,-7.689323526475542276e-04,-4.231017487319414100e-03,-7.864133979933823904e-03,-1.158123677918565866e-02,-1.527644626201914851e-02,-1.883197662040761444e-02,-2.212517529615042750e-02,-2.503592797730761280e-02,-2.745496861370130826e-02,-2.929382661862344611e-02,-3.049648116667022860e-02,-3.105035515014158837e-02,-3.099192283836625303e-02,-3.040306538945179021e-02,-2.939868689408280458e-02,-2.811031086303856022e-02,-2.667086964543337324e-02,-2.520331166388617428e-02,-2.381311837101273213e-02,-2.258383307072791765e-02,-2.157479590027134089e-02,-2.082109680621310396e-02,-2.033646060090140220e-02,-2.011894394630912852e-02,-2.015759793998431540e-02,-2.043778388095175702e-02,-2.094395375543021617e-02,-2.166012808809553158e-02,-2.256921419291441078e-02,-2.365240282948825878e-02,-2.488919617657711636e-02,-2.625780371666124394e-02,-2.773516632590933978e-02,-2.929588989499081961e-02,-3.090983459096689756e-02,-3.253812630835753450e-02,-3.412673665205728096e-02,-3.559730408384796652e-02,-3.683731553539715958e-02,-3.769400338900754516e-02,-3.797639279846192623e-02,-3.746834079119512606e-02,-3.595302383887505338e-02,-3.324593933701540382e-02,-2.922991646042492550e-02,-2.388451491398702400e-02,-1.730443335562694210e-02,-9.704935518336562511e-03,-1.414817249043251370e-03,7.141225868723137873e-03,1.546881873730184334e-02,2.303703494158978321e-02,2.931626378050666143e-02,3.381785726187119812e-02,3.613310697324526033e-02,3.597043988206810594e-02,3.318993271571884368e-02,2.783268000812052709e-02,2.014004236347886542e-02,1.055579577585067340e-02,-2.944360339364981679e-04,-1.164569365860844592e-02,-2.265037186252574775e-02,-3.243961980144383084e-02,-4.018264702371591307e-02,-4.513970883195560918e-02,-4.670556863586994290e-02,-4.444050278020371392e-02,-3.808752260185793020e-02,-2.757895949702427255e-02,-1.303943501446866958e-02,5.209303374967317810e-03,2.664186668787732123e-02,5.052573400978151857e-02,7.592658551050270044e-02,1.017277832435900392e-01,1.266684684838527974e-01,1.494015929583081825e-01,1.685674487957927181e-01,1.828739387978358666e-01,1.911751551806850080e-01,1.925428866759097968e-01,1.863274724505308566e-01,1.722049714985557922e-01,1.502097645344266930e-01,1.207537793200081228e-01,8.463065751423501371e-02,4.299648885035530638e-02,-2.684303884044663292e-03,-5.073385283167415605e-02,-9.939060065775333352e-02,-1.469552990250402036e-01,-1.919261149316128234e-01,-2.330961633237877140e-01,-2.695980174229538617e-01,-3.008965564867875919e-01,-3.267442629302728108e-01,-3.471167482572179996e-01,-3.621442564559468336e-01,-3.720513034935987728e-01,-3.771112023353651033e-01,0.000000000000000000e+00,0.000000000000000000e+00,0.000000000000000000e+00,0.000000000000000000e+00,0.000000000000000000e+00,0.000000000000000000e+00,0.000000000000000000e+00,0.000000000000000000e+00,0.000000000000000000e+00,0.000000000000000000e+00,0.000000000000000000e+00,0.000000000000000000e+00,0.000000000000000000e+00,0.000000000000000000e+00,0.000000000000000000e+00,0.000000000000000000e+00,0.000000000000000000e+00,0.000000000000000000e+00,0.000000000000000000e+00,0.000000000000000000e+00,0.000000000000000000e+00,0.000000000000000000e+00,0.000000000000000000e+00,0.000000000000000000e+00,0.000000000000000000e+00,0.000000000000000000e+00,0.000000000000000000e+00,0.000000000000000000e+00,0.000000000000000000e+00,0.000000000000000000e+00,0.000000000000000000e+00,0.000000000000000000e+00,0.000000000000000000e+00,0.000000000000000000e+00,0.000000000000000000e+00,0.000000000000000000e+00,0.000000000000000000e+00,0.000000000000000000e+00,0.000000000000000000e+00,0.000000000000000000e+00,0.000000000000000000e+00,0.000000000000000000e+00,0.000000000000000000e+00,0.000000000000000000e+00,0.000000000000000000e+00,0.000000000000000000e+00,0.000000000000000000e+00,0.000000000000000000e+00,0.000000000000000000e+00,0.000000000000000000e+00,0.000000000000000000e+00,0.000000000000000000e+00,0.000000000000000000e+00,0.000000000000000000e+00,0.000000000000000000e+00,0.000000000000000000e+00,0.000000000000000000e+00,0.000000000000000000e+00,0.000000000000000000e+00,0.000000000000000000e+00,0.000000000000000000e+00,0.000000000000000000e+00,0.000000000000000000e+00,0.000000000000000000e+00,0.000000000000000000e+00,0.000000000000000000e+00,0.000000000000000000e+00,0.000000000000000000e+00,0.000000000000000000e+00,0.000000000000000000e+00,0.000000000000000000e+00,0.000000000000000000e+00,0.000000000000000000e+00,0.000000000000000000e+00,0.000000000000000000e+00,0.000000000000000000e+00,0.000000000000000000e+00,0.000000000000000000e+00,0.000000000000000000e+00,0.000000000000000000e+00,0.000000000000000000e+00,0.000000000000000000e+00,0.000000000000000000e+00,0.000000000000000000e+00,0.000000000000000000e+00,0.000000000000000000e+00,0.000000000000000000e+00,0.000000000000000000e+00,0.000000000000000000e+00,0.000000000000000000e+00,0.000000000000000000e+00,0.000000000000000000e+00,0.000000000000000000e+00,0.000000000000000000e+00,0.000000000000000000e+00,0.000000000000000000e+00,0.000000000000000000e+00
-3.776162103804447945e-01,-3.738615714575344584e-01,-3.661428494088933561e-01,-3.547666177072031912e-01,-3.400727164774133837e-01,-3.224624473411343284e-01,-3.024229439690606092e-01,-2.805365613599064001e-01,-2.574678942707576135e-01,-2.339292049877660651e-01,-2.106331414299804639e-01,-1.882443665097127128e-01,-1.673385699207294852e-01,-1.483727068794589987e-01,-1.316672126753199168e-01,-1.173991625097738772e-01,-1.056046626500199842e-01,-9.618891220840516953e-02,-8.894264029981252540e-02,-8.356431622128498993e-02,-7.968837820648139170e-02,-7.691888238724362004e-02,-7.486527760154107480e-02,-7.317505022830357586e-02,-7.155881154224340290e-02,-6.980571712863588296e-02,-6.778854063965598920e-02,-6.545894115606012975e-02,-6.283570540674350557e-02,-5.999011281751667063e-02,-5.703136549055768528e-02,-5.409282999326162078e-02,-5.131906927078947606e-02,-4.885410457928959088e-02,-4.683064714368507381e-02,-4.535868280425173205e-02,-4.451320323524807915e-02,-4.432383236059837112e-02,-4.476904332939472819e-02,-4.577551848343672236e-02,-4.722288673761480121e-02,-4.895495746387832497e-02,-5.079751097581747948e-02,-5.257949825879392608e-02,-5.415222413073432495e-02,-5.540211263740661002e-02,-5.625588554363474686e-02,-5.668024712457245262e-02,-5.668024533127289516e-02,-5.629968573924341163e-02,-5.562290671992542457e-02,-5.477354401521335875e-02,-5.390625032617468032e-02,-5.319058925514355551e-02,-5.278927715678194410e-02,-5.283464295671538163e-02,-5.340824621579301490e-02,-5.452816253494027765e-02,-5.614551610670701076e-02,-5.814872442140262693e-02,-6.037336052880416110e-02,-6.261655085807800447e-02,-6.465525634239920050e-02,-6.626732953017112904e-02,-6.725337412797008363e-02,-6.745664862753196489e-02,-6.677838974777472458e-02,-6.518737504490805523e-02,-6.272424972098533669e-02,-5.950140697525023448e-02,-5.569795955871501003e-02,-5.154863454948464818e-02,-4.732665405489314830e-02,-4.332263638506581027e-02,-3.982243164201485636e-02,-3.708602000342955257e-02,-3.532743784784594249e-02,-3.469396901041961467e-02,-3.524476140794766121e-02,-3.693421364630197767e-02,-3.960823798022113790e-02,-4.301822237273823790e-02,-4.685095721347090625e-02,-5.076754866904165803e-02,-5.444276768208956840e-02,-5.759832045772445702e-02,-6.002703601993446270e-02,-6.160724263133911943e-02,-6.230707129176584619e-02,-6.217865367290766748e-02,-6.134323397288309748e-02,-5.996990163841809524e-02,-5.825205845781711994e-02,-5.638532353902876715e-02,-5.454846622663448580e-02,-5.288766342717153568e-02,-5.150487349682728727e-02,-5.045173913442010244e-02,-4.973014270090191785e-02,-4.929939907898737983e-02,-4.908834397128535032e-02,-4.900951109558370627e-02,-4.897345838341022467e-02,-4.890296233978448648e-02,-4.874653131250727967e-02,-4.848848470951021977e-02,-4.815204856762644176e-02,-4.779398037034415098e-02,-4.749217782109905334e-02,-4.732980196354242414e-02,-4.737992715800953131e-02,-4.769335915397660691e-02,-4.829026124572265155e-02,-4.915533866819304931e-02,-5.023673265356201623e-02,-5.144934023266214962e-02,-5.268297475353490161e-02,-5.381427348647739584e-02,-5.471960700357777346e-02,-5.528641335951840763e-02,-5.542215521821800689e-02,-5.506116692889663489e-02,-5.416930370617287216e-02,-5.274564485771774530e-02,-5.082048581592675529e-02,-4.844975997519934685e-02,-4.570759521471145365e-02,-4.268008101762689466e-02,-3.946266685415013992e-02,-3.616039611488291311e-02,-3.288776079136283836e-02,-2.976590415438644735e-02,-2.691703749903496048e-02,-2.445705503115214174e-02,-2.248775271570130699e-02,-2.109014347834006070e-02,-2.031987562674545875e-02,-2.020458998355241856e-02,-2.074206594346240939e-02,-2.189853416316569351e-02,-2.360789144404843234e-02,-2.577293114240294600e-02,-2.826918738514348078e-02,-3.095170042388440887e-02,-3.366468001563653611e-02,-3.625297625015735936e-02,-3.857344628333853748e-02,-4.050507785448624609e-02,-4.195791192749475512e-02,-4.288007732504645758e-02,-4.326042116897065720e-02,-4.312452135300495065e-02,-4.252482250060551916e-02,-4.152815867461573385e-02,-4.020391489723386391e-02,-3.861502158445766220e-02,-3.681350995242206603e-02,-3.484131643978546911e-02,-3.273465604673612278e-02,-3.052848832926946879e-02,-2.825798989081917262e-02,-2.595615218037829880e-02,-2.364900877794624823e-02,-2.135094225276483459e-02,-1.906224804906828801e-02,-1.677077256536314842e-02,-1.445851210825644002e-02,-1.211185572109990151e-02,-9.731959314376996753e-03,-7.341045535362657887e-03,-4.981739088651079318e-03,-2.709777817723121440e-03,-5.835926278972828523e-04,1.345166223897615795e-03,3.037781252498635096e-03,4.470998523877061856e-03,5.637023867307468586e-03,6.542711243232267326e-03,7.209357274366521261e-03,7.672947281455876241e-03,7.983537654006439901e-03,8.203561490153664024e-03,8.406055780091854779e-03,8.672469413138062314e-03,9.087979499477845738e-03,9.733130553229728948e-03,1.067325693008379026e-02,1.194911901701986925e-02,1.357195362594521351e-02,1.552394156177857275e-02,1.776332078956627952e-02,2.023324038276487838e-02,2.287295272170137075e-02,2.562805974433224679e-02,2.845572635214089693e-02,3.132317385961724127e-02,3.420176855796294713e-02,3.706108924029297147e-02,3.986615110811347895e-02,4.257850463132389907e-02,4.516037691378070595e-02,4.758037984986714791e-02,4.981919035874090435e-02,5.187409734023881724e-02,5.376167595860015941e-02,5.551740313628825835e-02,5.719055045617158634e-02,5.883353728411377936e-02,6.048764954176902992e-02,6.217032989945463217e-02,6.387002364999073978e-02,6.555130754999485831e-02,6.716825465105261128e-02,6.868092582719059758e-02,7.006933091858025264e-02,7.134077106181477279e-02,7.252949297792883609e-02,7.369063463030560424e-02,7.489189682696004158e-02,7.620573054693149939e-02,7.770299788397178054e-02,7.944711519707836622e-02,8.148678787037651194e-02,8.384717491249649157e-02,8.652236864135573469e-02,8.947233889340500124e-02,9.262497185161622237e-02,9.588251293984316470e-02,9.913195868003103761e-02,1.022581216633720175e-01,1.051567706303360439e-01,1.077456017425450635e-01,1.099720884234700602e-01,1.118176682118701276e-01,1.132976730789605618e-01,1.144571307413325689e-01,1.153636235032386298e-01,1.160987793571002374e-01,1.167500009079975865e-01,1.174038650955798319e-01,1.181413297678892693e-01,1.190330254477777738e-01,1.201328938503266885e-01,1.214708030437093439e-01,1.230467956186221401e-01,1.248289959772366092e-01,1.267549816729200141e-01,1.287351896389250516e-01,1.306574992716125483e-01,1.323930766527022240e-01,1.338037708159293404e-01,1.347513515023355535e-01,1.351087054823685851e-01,1.347720534127256065e-01,1.336722912725250567e-01,1.317840008429508047e-01,1.291310392670557416e-01,1.257866236300763385e-01,1.218659823474424891e-01,1.175128267166816315e-01,1.128839046047848127e-01,1.081352480141782868e-01,1.034111987282393813e-01,9.883646078290596326e-02,9.451206852464336117e-02,9.051578221606684793e-02,8.690567429424043977e-02,8.372455849634086178e-02,8.100333340136099680e-02,7.876199373350165067e-02,7.700772056743994398e-02,7.573091008369693677e-02,7.490108310066469210e-02,7.446382217314481688e-02,7.433904671699485822e-02,7.442223516612986312e-02,7.459086042009664685e-02,7.471531768345004987e-02,7.467067961675405430e-02,7.434677645529708112e-02,7.365640824072064441e-02,7.254124535802877749e-02,7.097429215651201995e-02,6.895911348090159876e-02,6.652709367690282094e-02,6.373317785699164628e-02,6.064990990106233770e-02,5.736021406936023942e-02,5.394989649263501330e-02,5.050069546996320546e-02,4.708473486897837845e-02,4.376132460257062262e-02,4.057623021576230171e-02,3.756264364153318741e-02,3.474343790365436863e-02,3.213467099805127764e-02,2.974972515201257384e-02,2.760319104694594280e-02,2.571381356198057175e-02,2.410562621471281156e-02,2.280654487281326068e-02,2.184465931554191789e-02,2.124318244417378043e-02,2.101482855479272494e-02,2.115589575016213475e-02,2.164082030136252333e-02,2.241927621284963909e-02,2.341770943320267348e-02,2.454521562327782735e-02,2.570209649651300499e-02,2.678878707654823790e-02,2.771275268510150006e-02,2.839201870490536475e-02,2.875604737945461689e-02,2.874660040555790386e-02,2.832148413950929394e-02,2.746154680567122752e-02,2.617798725748012728e-02,2.451603049677241603e-02,2.255224287880974385e-02,2.038508311545437351e-02,1.812138677880113097e-02,1.586351312953312998e-02,1.370089004452793718e-02,1.170669941866881586e-02,9.938199808099497032e-03,8.438996174820485169e-03,7.242157084160693974e-03,6.372938204196882360e-03,5.849379362326352985e-03,5.679188089859179937e-03,5.852867863142525648e-03,6.336124209558300670e-03,7.066758326461640947e-03,7.959284437424133871e-03,8.915399275805376000e-03,9.835209419544011650e-03,1.062574745314576186e-02,1.120705774531309193e-02,1.151720832506959551e-02,1.151575543066868899e-02,1.118440124241603349e-02,1.052511832891106502e-02,9.557233114528336515e-03,8.314251600795342229e-03,6.840066216924609033e-03,5.184786323848642603e-03,3.402098252517442387e-03,1.549702881989971099e-03,-3.082437086079669371e-04,-2.099494433536348674e-03,-3.745388911407550661e-03,-5.167227672259754739e-03,-6.296759994979032188e-03,-7.087672342262308495e-03,-7.524062555930536612e-03,-7.623139631591354867e-03,-7.430881273875954325e-03,-7.010867931148619635e-03,-6.429072177643098233e-03,-5.739613361467635518e-03,-4.976140914701990790e-03,-4.150820720898312777e-03,-3.259731664840088885e-03,-2.291686694431686010e-03,-1.237803811425045855e-03,-1.004984861832784770e-04,1.098630554846802797e-03,2.312951542957183710e-03,3.468756255377226233e-03,4.468411669168019865e-03,5.198331035079924688e-03,5.540085819086664962e-03,5.382943285332905149e-03,4.636499821983100164e-03,3.242339659698502321e-03,1.183832821026563255e-03,-1.506338538810511911e-03,-4.740981447918245044e-03,-8.376628263529669119e-03,-1.221783709772099845e-02,-1.602964160722220033e-02,-1.955756328497573401e-02,-2.255170184776984429e-02,-2.478997332081425350e-02,-2.609672920566091445e-02,-2.635601830947757393e-02,-2.552068152827733499e-02,-2.361768765167094122e-02,-2.074866561851430868e-02,-1.708496437071243754e-02,-1.285807577721266234e-02,-8.346534682753575102e-03,-3.859034401096876534e-03,2.877119596343875353e-04,3.796657249902121289e-03,6.420069552466282393e-03,7.984404025807922273e-03,8.404923790075699216e-03,7.688788012364214039e-03,5.928256167136914355e-03,3.286221218563733712e-03,-2.377127044105652545e-05,-3.760183609058927699e-03,-7.675664748023679033e-03,-1.153719144092744953e-02,-1.514430576652279342e-02,-1.834470514616434733e-02,-2.104426745163253190e-02,-2.320830654469814222e-02,-2.485383988350050796e-02,-2.603661786642741741e-02,-2.683721695124533305e-02,-2.734767756198142399e-02,-2.765863610164553954e-02,-2.784793065577051072e-02,-2.797237700373823507e-02,-2.806376412564058273e-02,-2.812928070035874972e-02,-2.815583348695900601e-02,-2.811683075535791054e-02,-2.797932733489205681e-02,-2.770920858296746503e-02,-2.727299290944120574e-02,-2.663742285735311646e-02,-2.577047808381472543e-02,-2.464704013217646275e-02,-2.325906082153953586e-02,-2.162659331224659962e-02,-1.980528844216044790e-02,-1.788776695109357134e-02,-1.599856352519896455e-02,-1.428402620564122281e-02,-1.289930914060466276e-02,-1.199403203916130436e-02,-1.169685992281950526e-02,-1.209871884308615954e-02,-1.323561389246615330e-02,-1.507409898934079610e-02,-1.750331833584135507e-02,-2.033678540724463690e-02,-2.332549096017607834e-02,-2.618149404822326873e-02,-2.860835635412420017e-02,-3.033353942902319855e-02,-3.113881751616432228e-02,-3.088612365475120608e-02,-2.953662431990857276e-02,-2.716084068026092257e-02,-2.393790847770418256e-02,-2.014214549558368539e-02,-1.611591779242844968e-02,-1.223110103196260387e-02,-8.845798301895635429e-03,-6.264490123846313575e-03,-4.707143000004623476e-03,-4.289246132297281668e-03,-5.013472325376381808e-03,-6.773563895434278614e-03,-9.370515140862558864e-03,-1.254055395853731492e-02,-1.599234403455336573e-02,-1.944615078220906720e-02,-2.266478349655978025e-02,-2.546932271131664358e-02,-2.773969539206885479e-02,-2.940539591341121903e-02,-3.043239477770314991e-02,-3.081048983504489774e-02,-3.054403843126755891e-02,-2.964820603648814917e-02,-2.815112978850347128e-02,-2.610021947278185622e-02,-2.356948539036998747e-02,-2.066449344372534372e-02,-1.752215997744599463e-02,-1.430399146771930280e-02,-1.118340205499560557e-02,-8.329705937376301328e-03,-5.892138944437325977e-03,-3.986870768740991867e-03,-2.688825634520754237e-03,-2.028580607876876319e-03,-1.994160100210041250e-03,-2.537743609221161222e-03,-3.585928883965534397e-03,-5.050715073043123525e-03,-6.839209454038255517e-03,-8.861458616795207799e-03,-1.103568863539453396e-02,-1.328960575488280331e-02,-1.555685280146441168e-02,-1.776955115597005780e-02,-1.985022496585987437e-02,-2.170745881314205261e-02,-2.323776333698887586e-02,-2.433255205014388245e-02,-2.488744202164649283e-02,-2.481241896397459387e-02,-2.404304777777368021e-02,-2.255237829066288752e-02,-2.036115611654448418e-02,-1.754283477841985656e-02,-1.422109693929294802e-02,-1.056036266961420285e-02,-6.751967033831766593e-03,-2.998977129543907612e-03,4.982409537530812322e-04,3.554250916654246549e-03,6.007598092939044759e-03,7.726826309358013171e-03,8.614842594527338110e-03,8.612819307812269454e-03,7.703432200018521352e-03,5.912570114786588026e-03,3.309158118957097622e-03,3.184191836336734954e-06,-3.857946109057513139e-03,-8.094423240066666095e-03,-1.250019596611252892e-02,-1.685089515563064494e-02,-2.091448973609667111e-02,-2.446450083963314440e-02,-2.729416911409865767e-02,-2.922981450621352228e-02,-3.014245742684026549e-02,-2.995729185069493164e-02,-2.866044089255259664e-02,-2.630232348847324347e-02,-2.299693004587164205e-02,-1.891556954556428138e-02,-1.427349059988268498e-02,-9.310241471498937466e-03,-4.268121014920466492e-03,6.257544903295392995e-04,5.170030350018547070e-03,9.191950132227700090e-03,1.254554723731910425e-02,1.511059416852188891e-02,1.679726736402187282e-02,1.755695254369022892e-02,1.739324682386789514e-02,1.636552335485874643e-02,1.458275500508128888e-02,1.219157161700881904e-02,9.363947534698355973e-03,6.286777157984386327e-03,3.151528231356359212e-03,1.410228402610948944e-04,-2.586940756513699587e-03,-4.916233298433747220e-03,-6.785680898277632496e-03,-8.196022896618091261e-03,-9.207846712795182686e-03,-9.929089548927863551e-03,-1.049408953071296821e-02,-1.103914610743197793e-02,-1.168000248241904404e-02,-1.249556178962925833e-02,-1.352042381541635960e-02,-1.474619298603817991e-02,-1.612878641499702545e-02,-1.759795424432073277e-02,-1.906633539594406596e-02,-2.043737612663908479e-02,-2.161242141265743225e-02,-2.249653701284923257e-02,-2.300206574950343710e-02,-2.305020611107575293e-02,-2.257254930592098724e-02,-2.151425408631942038e-02,-1.983876550896159982e-02,-1.753338818814725864e-02,-1.461612877475811784e-02,-1.114401641383717945e-02,-7.220475268770725798e-03,-2.997156086927662503e-03,1.333596623203265512e-03,5.555997851063051649e-03,9.453949624312720998e-03,1.283368713829261334e-02,1.554018523220951527e-02,1.746494808549266947e-02,1.854680672517207765e-02,1.876940278877398116e-02,1.815856165824816792e-02,1.678065272785361078e-02,1.474035611382458130e-02,1.217459658589607925e-02,9.240395905571317792e-03,6.098084358824210072e-03,2.895241369699355118e-03,-2.426221426214324412e-04,-3.212361928432000933e-03,-5.927263402266981333e-03,-8.309804103861872723e-03,-1.028678107410763848e-02,-1.178868983934219447e-02,-1.275428066413328981e-02,-1.313991408500927126e-02,-1.293112708957087388e-02,-1.215181896418279263e-02,-1.086644628522681448e-02,-9.173288947909684701e-03,-7.190529540684598847e-03,-5.038967143980056275e-03,-2.825099782073773984e-03,-6.275962498968471522e-04,1.510093636219161017e-03,3.578496541738114458e-03,5.591127519378644682e-03,7.565880819794129804e-03,9.504608120154758866e-03,1.137759607208245309e-02,1.311684009304852662e-02,1.461860791530984749e-02,1.575425514855014614e-02,1.638748366048594501e-02,1.639530734406095119e-02,1.568950376699954422e-02,1.423508939772717176e-02,1.206234525869147485e-02,9.270231609135523576e-03,6.021569466393435210e-03,2.532081204091826600e-03,-9.449997472760193534e-04,-4.138420971975774465e-03,-6.782866945512001401e-03,-8.646599220912322761e-03,-9.559071787231872286e-03,-9.432517799804232897e-03,-8.272324411358403240e-03,-6.174618725321687901e-03,-3.313695307989874238e-03,7.634599428628233760e-05,3.723826647561931120e-03,7.346558285527710411e-03,1.068306439507481220e-02,1.352287583586602761e-02,1.572897637573355406e-02,1.724728795024772429e-02,1.810185995244250126e-02,1.837863498076728122e-02,1.820367178532926455e-02,1.772205645100487920e-02,1.708132215596083747e-02,1.642000149352733709e-02,1.586019055261069996e-02,1.550280096761198247e-02,1.542458240981288246e-02,1.567684150117566733e-02,1.628692132643735566e-02,1.726388573646679692e-02,1.860860370076521456e-02,2.032615465857852410e-02,2.243635540658774075e-02,2.497754783936690162e-02,2.800119490561860797e-02,3.155925804583754185e-02,3.568871267422315391e-02,4.039684581951980685e-02,4.564985447145943065e-02,5.136661560597721027e-02,5.741866124796499160e-02,6.363643020020705310e-02,6.982071746040004190e-02,7.575739601549706659e-02,8.123348476355782277e-02,8.605280158623487829e-02,9.004990636047399688e-02,9.310240439269916457e-02,9.514266891078891619e-02,9.616913003547356009e-02,9.625521069388461026e-02,9.555288736092547308e-02,9.428839159072695264e-02,9.274860133101134330e-02,9.125763114475869686e-02,9.014461071835853934e-02,8.970619587771157255e-02,9.017035432376793724e-02,9.166903236808669753e-02,9.422513348186342674e-02,9.775556715154984366e-02,1.020886271382572541e-01,1.069911015745962646e-01,1.121989641904395235e-01,1.174456530471597315e-01,1.224839763391151609e-01,1.271008832022776647e-01,1.311267306148652112e-01,1.344412330309550097e-01,1.369772623033668479e-01,1.387217847111286984e-01,1.397121096667180706e-01,1.400265311404203794e-01,1.397704383556516439e-01,1.390604040259237340e-01,1.380091489887333711e-01,1.367139654208052724e-01,1.352505857029765723e-01,1.336733973487800042e-01,1.320207425879149632e-01,1.303217360755431209e-01,1.286007204753752131e-01,1.268777611508620229e-01,1.251663555765686331e-01,1.234703716457658945e-01,1.217816183361896953e-01,1.200792152375179805e-01,1.183314852653711835e-01,1.164994301963534762e-01,1.145397425332271291e-01,1.124063159160063330e-01,1.100507083041791651e-01,1.074223478529195697e-01,1.044693882910395499e-01,1.011417579932370747e-01,9.739768902363427072e-02,9.321308894105333198e-02,8.859111079340550865e-02,8.356878827643979268e-02,7.821869779727630423e-02,7.264536183351794074e-02,6.697760167858075875e-02,6.135898463977794426e-02,5.593826723280894558e-02,5.086006780495721386e-02,4.625518242710319888e-02,4.223162991423969059e-02,3.886876628541663381e-02,3.621452278186931828e-02,3.428265364004024623e-02,3.304787169684177128e-02,3.244113844840041533e-02,3.234902828575970946e-02,3.261774540892054680e-02,3.305942158257946933e-02,3.346009199537935269e-02,3.359132015956325240e-02,3.322635029244187105e-02,3.215935576083728958e-02,3.022558941555457054e-02,2.731968302272484370e-02,2.340877470043972383e-02,1.853817276732126068e-02,1.282908481025676721e-02,6.468593355529360205e-03,-3.075444322684550073e-04,-7.236843575035206699e-03,-1.405292309626145902e-02,-2.050657878620831126e-02,-2.638407579897711353e-02,-3.152139712412513339e-02,-3.581304364545654512e-02,-3.921514834760960605e-02,-4.174293592739541231e-02,-4.346164561859746506e-02,-4.447093179041805566e-02,-4.488578491083393407e-02,-4.481856993416394319e-02,-4.436542626726111549e-02,-4.359864958679358221e-02,-4.256643155330386286e-02,-4.130049916087753098e-02,-3.982907316140801152e-02,-3.818962013045710396e-02,-3.643667388439193744e-02,-3.464353877569892326e-02,-3.289877994680986267e-02,-3.129799955023482988e-02,-2.993138283853585477e-02,-2.886965949968126055e-02,-2.815333907096397720e-02,-2.778925957070491060e-02,-2.775509931466061536e-02,-2.800941971642511089e-02,-2.850297337673551867e-02,-2.918669582272721830e-02,-3.001392824550522601e-02,-3.093741884636878187e-02,-3.190319188231348357e-02,-3.284392846755827128e-02,-3.367468185898892657e-02,-3.429268339395921683e-02,-3.458108689939477093e-02,-3.441581767182728957e-02,-3.367585783065992627e-02,-3.225791936654352765e-02,-3.009419038432841614e-02,-2.716837091505522675e-02,-2.352450856291586276e-02,-1.926632907880688333e-02,-1.454916332075373298e-02,-9.568624580800176582e-03,-4.548755608843663666e-03,2.697997810773309973e-04,4.641098053200978096e-03,8.323454244149656317e-03,1.108689567629829280e-02,1.271980357802127148e-02,1.303718249278033176e-02,1.189335993772783033e-02,9.200718656454670227e-03,4.953299220739443634e-03,-7.489654948498395814e-04,-7.681597633690667726e-03,-1.548803189055405691e-02,-2.368562214502444377e-02,-3.168442521481865809e-02,-3.881604485767842921e-02,-4.437005025716739270e-02,-4.763764557889076101e-02,-4.796246311562192555e-02,-4.479496474739002448e-02,-3.774495022655250526e-02,-2.662836974042736421e-02,-1.150544303395234502e-02,7.294551780881133006e-03,2.916627213548136227e-02,5.324056782074233773e-02,7.841600859545821978e-02,1.034107101039475202e-01,1.268342477432084503e-01,1.472736895090764331e-01,1.633821341110581749e-01,1.739576939345995610e-01,1.780054110983559923e-01,1.747811842341290556e-01,1.638229179219325427e-01,1.449771802330339365e-01,1.184266191406154606e-01,8.471383021884529296e-02,4.474744815895837641e-02,-2.251201682902177119e-04,-4.868524944462455928e-02,-9.894615112693559700e-02,-1.492772876890272049e-01,-1.980297074055583084e-01,-2.437402254253452916e-01,-2.851982429222763016e-01,-3.214714128086324507e-01,-3.518985392928715150e-01,-3.760629790582535881e-01,-3.937584833234846760e-01,-4.049570191842888356e-01,0.000000000000000000e+00,0.000000000000000000e+00,0.000000000000000000e+00,0.000000000000000000e+00,0.000000000000000000e+00,0.000000000000000000e+00,0.000000000000000000e+00,0.000000000000000000e+00,0.000000000000000000e+00,0.000000000000000000e+00,0.000000000000000000e+00,0.000000000000000000e+00,0.000000000000000000e+00,0.000000000000000000e+00,0.000000000000000000e+00,0.000000000000000000e+00,0.000000000000000000e+00,0.000000000000000000e+00,0.000000000000000000e+00,0.000000000000000000e+00,0.000000000000000000e+00,0.000000000000000000e+00,0.000000000000000000e+00,0.000000000000000000e+00,0.000000000000000000e+00,0.000000000000000000e+00,0.000000000000000000e+00,0.000000000000000000e+00,0.000000000000000000e+00,0.000000000000000000e+00,0.000000000000000000e+00,0.000000000000000000e+00,0.000000000000000000e+00,0.000000000000000000e+00,0.000000000000000000e+00,0.000000000000000000e+00,0.000000000000000000e+00,0.000000000000000000e+00,0.000000000000000000e+00,0.000000000000000000e+00,0.000000000000000000e+00,0.000000000000000000e+00,0.000000000000000000e+00,0.000000000000000000e+00,0.000000000000000000e+00,0.000000000000000000e+00,0.000000000000000000e+00,0.000000000000000000e+00,0.000000000000000000e+00,0.000000000000000000e+00,0.000000000000000000e+00,0.000000000000000000e+00,0.000000000000000000e+00,0.000000000000000000e+00,0.000000000000000000e+00,0.000000000000000000e+00,0.000000000000000000e+00,0.000000000000000000e+00,0.000000000000000000e+00,0.000000000000000000e+00,0.000000000000000000e+00,0.000000000000000000e+00,0.000000000000000000e+00,0.000000000000000000e+00,0.000000000000000000e+00,0.000000000000000000e+00,0.000000000000000000e+00,0.000000000000000000e+00,0.000000000000000000e+00,0.000000000000000000e+00,0.000000000000000000e+00,0.000000000000000000e+00,0.000000000000000000e+00,0.000000000000000000e+00,0.000000000000000000e+00,0.000000000000000000e+00,0.000000000000000000e+00,0.000000000000000000e+00,0.000000000000000000e+00,0.000000000000000000e+00,0.000000000000000000e+00,0.000000000000000000e+00,0.000000000000000000e+00,0.000000000000000000e+00,0.000000000000000000e+00,0.000000000000000000e+00,0.000000000000000000e+00,0.000000000000000000e+00,0.000000000000000000e+00,0.000000000000000000e+00,0.000000000000000000e+00,0.000000000000000000e+00,0.000000000000000000e+00,0.000000000000000000e+00,0.000000000000000000e+00,0.000000000000000000e+00,0.000000000000000000e+00,0.000000000000000000e+00,0.000000000000000000e+00,0.000000000000000000e+00,0.000000000000000000e+00,0.000000000000000000e+00,0.000000000000000000e+00,0.000000000000000000e+00,0.000000000000000000e+00
-4.097844903957207907e-01,-4.085046027841500726e-01,-4.015073965309969850e-01,-3.892997383884134743e-01,-3.724973505993292577e-01,-3.518183911354053062e-01,-3.280771083651832232e-01,-3.021733794910986814e-01,-2.750712475855554007e-01,-2.477603341790628189e-01,-2.211996658032290286e-01,-1.962509638381922383e-01,-1.736140417775939859e-01,-1.537775125602847959e-01,-1.369927091586746193e-01,-1.232719951016109095e-01,-1.124091606113485492e-01,-1.040188050630470040e-01,-9.759098164118296115e-02,-9.255574716495942877e-02,-8.834999601361710753e-02,-8.447845058007212582e-02,-8.056323780514626498e-02,-7.637897167278072386e-02,-7.186984667631317325e-02,-6.714458486430698037e-02,-6.244773515857986179e-02,-5.811100794971839345e-02,-5.449355939368781543e-02,-5.192343193127660350e-02,-5.065137588560146564e-02,-5.082283141723113740e-02,-5.246727714475450666e-02,-5.549981395676423235e-02,-5.972927583220581649e-02,-6.487014902649348991e-02,-7.055928333579979117e-02,-7.637960849351911607e-02,-8.189195436942214856e-02,-8.667371122892281177e-02,-9.035968380314972348e-02,-9.267836539191010026e-02,-9.347787865518714101e-02,-9.273763083308157740e-02,-9.056287720480242498e-02,-8.716263247557849703e-02,-8.281695796997069758e-02,-7.784250643563984939e-02,-7.256250526146768021e-02,-6.728293398838092187e-02,-6.227479824976488859e-02,-5.776258423538577907e-02,-5.391899961676052677e-02,-5.086530110172111929e-02,-4.867492933712293246e-02,-4.737701496024285946e-02,-4.695752750653719304e-02,-4.735882457226377878e-02,-4.848022513922494586e-02,-5.018157420890151377e-02,-5.229004856606832286e-02,-5.460994813857723146e-02,-5.693606246857431386e-02,-5.907108427482531121e-02,-6.084498089758970385e-02,-6.213146536241077184e-02,-6.285750585266751400e-02,-6.300561575695812211e-02,-6.261061334699739855e-02,-6.175130626537660844e-02,-6.053699103376709856e-02,-5.909038502715751456e-02,-5.753014670394029223e-02,-5.595595531584644788e-02,-5.443854140829114396e-02,-5.301743659561318489e-02,-5.170853899124070591e-02,-5.051923042929281488e-02,-4.946410613112720706e-02,-4.857519469304688586e-02,-4.790526993796132005e-02,-4.752517390560519195e-02,-4.751511178042335665e-02,-4.794977136699571374e-02,-4.887944184889475574e-02,-5.031187494885918515e-02,-5.220035207267821609e-02,-5.444169508807356755e-02,-5.688404950034527119e-02,-5.934030025897403526e-02,-6.160251415368814265e-02,-6.345631878370318335e-02,-6.469757178309860912e-02,-6.515347181852174097e-02,-6.470725039205682538e-02,-6.332235218999938964e-02,-6.105939211943683248e-02,-5.807855135553362941e-02,-5.462388570816290728e-02,-5.099247153808051519e-02,-4.749535172405637551e-02,-4.441758366604076080e-02,-4.198384785340981279e-02,-4.033500949480672837e-02,-3.951847524603141482e-02,-3.949174083309054534e-02,-4.013714738759113776e-02,-4.128649781667967367e-02,-4.275282100020658116e-02,-4.436250110451000345e-02,-4.597912182419232330e-02,-4.751378505356195631e-02,-4.892225659742244215e-02,-5.019296358922074180e-02,-5.133102522913628868e-02,-5.234279324887004120e-02,-5.322309591783000449e-02,-5.394547165014914464e-02,-5.445637920188574344e-02,-5.467625017747913818e-02,-5.450987761836320611e-02,-5.386535456720998455e-02,-5.267719525085323706e-02,-5.092816985969225024e-02,-4.866561835447386075e-02,-4.600901284990908946e-02,-4.314614765029591709e-02,-4.031777786334578284e-02,-3.779312581801345244e-02,-3.583856091038835345e-02,-3.468225154283846590e-02,-3.448097122223674899e-02,-3.529595873162917619e-02,-3.708085254104229872e-02,-3.968263973193279781e-02,-4.285753824237192866e-02,-4.630181191939421875e-02,-4.969217545033984690e-02,-5.272697361915368308e-02,-5.515989122359341024e-02,-5.682133495366663289e-02,-5.762681043485747001e-02,-5.757389910356385671e-02,-5.672961881036085730e-02,-5.521087001947941331e-02,-5.316257775193915930e-02,-5.073816309828888677e-02,-4.808449471034042383e-02,-4.533086133188794775e-02,-4.258075736351769197e-02,-3.990612575803417078e-02,-3.734451812553655353e-02,-3.489971512174087909e-02,-3.254591756057746005e-02,-3.023483549377022420e-02,-2.790484589784259298e-02,-2.549197547802324951e-02,-2.294207004790937629e-02,-2.022231988647436168e-02,-1.733030908608879789e-02,-1.430003673850455473e-02,-1.120539325822915086e-02,-8.160931904155108163e-03,-5.317601541233560498e-03,-2.850175059919602630e-03,-9.356492069859818341e-04,2.736390675252920531e-04,6.753727227944132270e-04,2.346757141721163005e-04,-1.009296828725623303e-03,-2.946464295474955468e-03,-5.405937775559143364e-03,-8.171575524889455183e-03,-1.100256732184525139e-02,-1.365811621843921082e-02,-1.592353912330936663e-02,-1.763336493890953205e-02,-1.868684072708443056e-02,-1.905320596073116143e-02,-1.876690817644041318e-02,-1.791554960341404726e-02,-1.662472663461937727e-02,-1.504279466614857549e-02,-1.332613574865390386e-02,-1.162415158385275531e-02,-1.006332098237414270e-02,-8.730929086047995238e-03,-7.661532784911381094e-03,-6.830861831566845468e-03,-6.160121520230372842e-03,-5.529832183560036245e-03,-4.799244906826330426e-03,-3.825519059285791869e-03,-2.477191416748130912e-03,-6.405157475352920519e-04,1.777993219264113875e-03,4.848529682668071238e-03,8.612440662627623630e-03,1.307472659093304040e-02,1.819717286942894655e-02,2.389468551413597222e-02,3.003516816776846676e-02,3.644232997913614269e-02,4.290269139363355605e-02,4.917871023194597679e-02,5.502705413621072211e-02,6.021819124933953243e-02,6.455377415223589876e-02,6.788028377182160622e-02,7.009890503062589373e-02,7.117233836315989270e-02,7.112903130928681372e-02,7.006403742583354466e-02,6.813487259421835418e-02,6.555146802974000375e-02,6.256068311780935143e-02,5.942720395234851044e-02,5.641405325026745826e-02,5.376617368368287464e-02,5.169863268325606415e-02,5.038835460888665962e-02,4.996723345698028673e-02,5.051567914385955010e-02,5.205804356969307573e-02,5.456297999331801568e-02,5.795062360613578711e-02,6.210497463650227479e-02,6.688736043004403498e-02,7.214760090278350690e-02,7.773169032851344473e-02,8.348582568886095401e-02,8.925720318695221089e-02,9.489375652938004946e-02,1.002462480565470271e-01,1.051742191608928956e-01,1.095535499576831273e-01,1.132821251258417233e-01,1.162826765428082582e-01,1.185045091860335992e-01,1.199253038959759016e-01,1.205522845585206976e-01,1.204216251839299728e-01,1.195955411978434912e-01,1.181568798982339102e-01,1.162020972360636312e-01,1.138353134852826826e-01,1.111662000011512663e-01,1.083112471431141172e-01,1.053943639852978897e-01,1.025432761616128091e-01,9.988265137064508692e-02,9.752798516036435827e-02,9.558218269457965932e-02,9.413220218326211197e-02,9.324177401876201920e-02,9.293917846566511487e-02,9.320308210372378610e-02,9.395212665822470777e-02,9.504442898393061778e-02,9.629039774383735262e-02,9.747654124975914380e-02,9.839272847720152704e-02,9.885506631995279181e-02,9.872107047765671384e-02,9.789855812010908598e-02,9.635106910132416880e-02,9.410079704119528321e-02,9.122756212187597968e-02,8.786202938066056678e-02,8.417358084040121868e-02,8.035523359688820366e-02,7.660738673610566207e-02,7.312021860968230536e-02,7.005411890314873491e-02,6.751962306983948225e-02,6.556121912735886348e-02,6.415056378728267727e-02,6.319282231316200593e-02,6.254542674694150983e-02,6.204381943376104797e-02,6.152744245959050617e-02,6.086191711216009520e-02,5.995560700145130539e-02,5.876819392597060904e-02,5.730895615943874116e-02,5.562554974135792279e-02,5.378744222153265808e-02,5.186882380440206025e-02,4.993476492618274809e-02,4.803336564231792949e-02,4.619504730356725070e-02,4.443722579583699733e-02,4.277042539846426239e-02,4.120266982701311503e-02,3.974125133219905126e-02,3.839205863456511547e-02,3.715704919701463826e-02,3.603154955067900539e-02,3.500325396950060980e-02,3.405264383690179142e-02,3.315270294354173003e-02,3.226715745030871857e-02,3.134960504695600420e-02,3.034730781688246143e-02,2.921129455985651754e-02,2.791002627007732953e-02,2.644098857428019839e-02,2.483565988836222010e-02,2.315688790867399122e-02,2.149058489893425350e-02,1.993411948467880765e-02,1.858316906586636452e-02,1.751933056402791428e-02,1.680119042255313541e-02,1.645954503133009034e-02,1.649534212815426809e-02,1.687928133540187239e-02,1.755274022433734454e-02,1.842916102646795229e-02,1.939562292960587964e-02,2.031696252973884398e-02,2.104556607470212115e-02,2.143650512281903772e-02,2.136448671895641721e-02,2.073991450566368966e-02,1.952303737704729619e-02,1.773439460186061398e-02,1.545844379311258135e-02,1.283796466925430681e-02,1.005901434278534505e-02,7.328641060565989178e-03,4.849965849356934096e-03,2.800189888687046932e-03,1.315374741145562253e-03,4.829064209461422156e-04,3.400675741583217390e-04,8.758055665005648905e-04,2.033306164881228811e-03,3.712779834812808544e-03,5.775073252274895777e-03,8.047237584249562412e-03,1.033205062413241476e-02,1.242282722457022266e-02,1.412120332398982166e-02,1.525363686878625571e-02,1.568555340838231199e-02,1.533469180518534994e-02,1.418245013127996355e-02,1.227863031840516726e-02,9.736419938258043805e-03,6.719048397206893279e-03,3.422459468892667840e-03,5.735546978182014342e-05,-3.168654113736648487e-03,-6.068686115897520966e-03,-8.492536411153932263e-03,-1.033869798040338260e-02,-1.156014434003206810e-02,-1.216175272455470406e-02,-1.218948118169970590e-02,-1.171578155983560993e-02,-1.082778275670035970e-02,-9.621540829065052328e-03,-8.200414733308481266e-03,-6.673693203042482640e-03,-5.153660279928177872e-03,-3.751612679645814109e-03,-2.573235126117501530e-03,-1.712301493448875351e-03,-1.241312339258836359e-03,-1.198851620115153364e-03,-1.575555165679247633e-03,-2.303440228472097059e-03,-3.254813266778652618e-03,-4.254216384341451794e-03,-5.101588255483879494e-03,-5.601610953889329426e-03,-5.594251271809332592e-03,-4.982114259051059410e-03,-3.750043645792190770e-03,-1.972938257940869220e-03,1.901120207543808378e-04,2.514432859160563912e-03,4.737629729340165664e-03,6.591866410873963369e-03,7.835860283757442937e-03,8.282348083156443677e-03,7.817204936644157540e-03,6.408496621115022766e-03,4.106860426159968797e-03,1.039425203892332559e-03,-2.601958821343362382e-03,-6.577979029360969676e-03,-1.062346871925397111e-02,-1.447128698777555220e-02,-1.787587738240213608e-02,-2.063356327835991905e-02,-2.259704825118553570e-02,-2.368345847741440413e-02,-2.387733941638368537e-02,-2.322986560133460249e-02,-2.185330281661814616e-02,-1.990910657730943570e-02,-1.759104017466923270e-02,-1.510752542480578269e-02,-1.266579098653597066e-02,-1.045707294165396442e-02,-8.642091799364304966e-03,-7.338506889716111398e-03,-6.613499826230119158e-03,-6.483431191214568054e-03,-6.919397990756925160e-03,-7.855297260344269381e-03,-9.195602077636744892e-03,-1.082229213545782449e-02,-1.260209506343247521e-02,-1.439528676878304610e-02,-1.606641565484173695e-02,-1.749646545330963907e-02,-1.859465730809676393e-02,-1.930699449874007101e-02,-1.961970244899046562e-02,-1.955771339631765318e-02,-1.917897060229536987e-02,-1.856503556361805557e-02,-1.780856352672524276e-02,-1.699917858267979004e-02,-1.621109241903361323e-02,-1.549659111494409644e-02,-1.488675415254290223e-02,-1.439643442246348222e-02,-1.402962302028530443e-02,-1.378319767254151083e-02,-1.364768863540298527e-02,-1.360473869987842421e-02,-1.362406228046538458e-02,-1.366377574676175613e-02,-1.367526955831378961e-02,-1.361084054391988561e-02,-1.343155895618945717e-02,-1.311350779271979426e-02,-1.265101720526490107e-02,-1.205608142005786150e-02,-1.135451105797331134e-02,-1.058039613730053959e-02,-9.770177845142643050e-03,-8.956991916969575876e-03,-8.166152262759244357e-03,-7.413617315448532696e-03,-6.709374789120071958e-03,-6.065439571724212837e-03,-5.505158300807576344e-03,-5.069470001887372602e-03,-4.816664197574603394e-03,-4.813999950363948357e-03,-5.122399520658959225e-03,-5.778256236702140371e-03,-6.777306865802155966e-03,-8.064716229813962550e-03,-9.534265710893805729e-03,-1.103794910016859046e-02,-1.240499237282292368e-02,-1.346669357455635915e-02,-1.408200674544388652e-02,-1.415949998513025589e-02,-1.367299810687583675e-02,-1.266892152537386212e-02,-1.126314571875300721e-02,-9.626547893981039425e-03,-7.961860359271006465e-03,-6.476725773365889574e-03,-5.357310544235105443e-03,-4.745492106752317515e-03,-4.721902130047910852e-03,-5.297041464789207718e-03,-6.412377629050330409e-03,-7.951137490495266413e-03,-9.755609376898208979e-03,-1.164744656725502647e-02,-1.344910483309666623e-02,-1.500485986695354775e-02,-1.619862240071033230e-02,-1.696493737264686760e-02,-1.729029266525309444e-02,-1.720440920070070642e-02,-1.676409422340039562e-02,-1.603369038521785042e-02,-1.506670678833163350e-02,-1.389374091350515858e-02,-1.252048589716040633e-02,-1.093541343543784697e-02,-9.123016170213537127e-03,-7.078466726485162230e-03,-4.821127452019018274e-03,-2.404447368902172359e-03,8.087509502886989208e-05,2.512922677316654484e-03,4.753582439074282261e-03,6.668885217789991167e-03,8.149103227852467352e-03,9.123493713464830498e-03,9.566223271020904070e-03,9.492760658961631182e-03,8.949633288381223656e-03,8.002603016062826910e-03,6.727523126517180423e-03,5.205507385215133072e-03,3.521494824161148628e-03,1.764223828672244416e-03,2.606454420454404493e-05,-1.598360794739719839e-03,-3.015900054019950149e-03,-4.141402002447093500e-03,-4.905616759084422719e-03,-5.261662410434040336e-03,-5.188280534150411377e-03,-4.690303520275957566e-03,-3.797278754152661612e-03,-2.560332979489868353e-03,-1.047793319888503261e-03,6.584974001071514788e-04,2.464990243562405724e-03,4.267793140104839816e-03,5.955179431678124351e-03,7.410859124873047342e-03,8.518069472179683882e-03,9.166458062809161242e-03,9.262982693036939802e-03,8.745259925621522157e-03,7.593878819445716230e-03,5.840033387750477242e-03,3.565993423649588875e-03,8.977539599106742173e-04,-2.008979070079332241e-03,-4.986767259659724734e-03,-7.874580599919170712e-03,-1.053225679492627957e-02,-1.284904279094483716e-02,-1.474661078543238781e-02,-1.617894257863487437e-02,-1.713144536412851415e-02,-1.761971681582811394e-02,-1.768686045360102696e-02,-1.739876117547485210e-02,-1.683754564743951410e-02,-1.609324178950683609e-02,-1.525355849567028646e-02,-1.439229505926041715e-02,-1.355767978033346928e-02,-1.276294344471764174e-02,-1.198232488773720225e-02,-1.115483638016536577e-02,-1.019516471443896247e-02,-9.009301594416091810e-03,-7.513499324779038605e-03,-5.655449705705969249e-03,-3.434254987803760963e-03,-9.136455981624221935e-04,1.776605241447685307e-03,4.453226060556606837e-03,6.903765632034676407e-03,8.916509868831308527e-03,1.030874621424457752e-02,1.094851082052645044e-02,1.076838198108281443e-02,9.771951233825593511e-03,8.034260321178919931e-03,5.697265321488224898e-03,2.959823667573442587e-03,6.038340510636846180e-05,-2.747246002746524425e-03,-5.220639276540172714e-03,-7.153090605687459358e-03,-8.393285954976650171e-03,-8.858907624870262371e-03,-8.541346101104135488e-03,-7.499561441356153088e-03,-5.845510953102686126e-03,-3.726586510136854248e-03,-1.308697983218720792e-03,1.239519928021045984e-03,3.761127646127725502e-03,6.122698303736994092e-03,8.222970586821842440e-03,9.998511458965349957e-03,1.142561962322039860e-02,1.251695110041590488e-02,1.331292431539623372e-02,1.387080464241090272e-02,1.425521797653824842e-02,1.453136826340095319e-02,1.475945819806457650e-02,1.498893045177448341e-02,1.525269700117773929e-02,1.556141907449362996e-02,1.589707310184653236e-02,1.620659601230293664e-02,1.639953608552795553e-02,1.635468256317940128e-02,1.593778263345231247e-02,1.502638566617402714e-02,1.353306453028793599e-02,1.142015510961790110e-02,8.705559100887801452e-03,5.462660489368238899e-03,1.816132987012342550e-03,-2.066496610996968863e-03,-5.987823713533284298e-03,-9.737744083245788301e-03,-1.311337161005581183e-02,-1.593843306877854721e-02,-1.807814333102360921e-02,-1.944714665532748521e-02,-2.001056576733533515e-02,-1.978016255766450529e-02,-1.880851183067689877e-02,-1.718274447226643756e-02,-1.501734931991379265e-02,-1.244590982254908419e-02,-9.612562304732114385e-03,-6.662640744718008670e-03,-3.731421023298925679e-03,-9.322314879793510995e-04,1.652875892563008793e-03,3.977758667024547216e-03,6.031810307953099082e-03,7.834386763315133798e-03,9.424063421685568293e-03,1.084471404465697439e-02,1.213168829338393678e-02,1.330109849820528163e-02,1.434499722268144095e-02,1.523420630142378884e-02,1.592821003195037458e-02,1.638962045849691462e-02,1.659965045275973300e-02,1.657050709224981364e-02,1.635140760315538511e-02,1.602691504138040179e-02,1.570827201576751805e-02,1.551963921035257911e-02,1.558168736736561394e-02,1.599505100462236817e-02,1.682585832525244560e-02,1.809542249525401825e-02,1.977636862293890782e-02,2.179668533257605664e-02,2.405098049980601560e-02,2.641666795231929418e-02,2.877267427257385046e-02,3.101740382886106553e-02,3.308123008995747516e-02,3.493009429649344272e-02,3.656133376283862702e-02,3.799652393039469611e-02,3.927597551980514107e-02,4.045642593987550106e-02,4.161016180026010092e-02,4.282304097093014850e-02,4.419054298610236575e-02,4.581225644254984658e-02,4.778527660079114059e-02,5.019728357472801050e-02,5.312031318232143112e-02,5.660522691320214045e-02,6.067561928622165063e-02,6.532007058129199462e-02,7.048317964821602943e-02,7.605760512213301239e-02,8.188069867406051749e-02,8.773952123176032014e-02,9.338640661495485606e-02,9.856428139835256286e-02,1.030380374261028187e-01,1.066260727736029479e-01,1.092251362815224863e-01,1.108232747039835514e-01,1.114996776295834185e-01,1.114131419734497308e-01,1.107818157099077910e-01,1.098580260840875400e-01,1.089025228662839906e-01,1.081606553351941447e-01,1.078412559546048644e-01,1.080996821298499388e-01,1.090278235556295799e-01,1.106531968208680772e-01,1.129465533769161700e-01,1.158350812609277303e-01,1.192179435227761902e-01,1.229817469647174338e-01,1.270138065350969181e-01,1.312107872351978843e-01,1.354809470749919198e-01,1.397401734937452344e-01,1.439041514834263069e-01,1.478797225387462055e-01,1.515575820139960228e-01,1.548080462471283780e-01,1.574827490486662984e-01,1.594251149373639154e-01,1.604888536450422842e-01,1.605588820952402462e-01,1.595680283770655183e-01,1.575065527307917823e-01,1.544249126599513966e-01,1.504299385632603125e-01,1.456738421404811523e-01,1.403375163009983051e-01,1.346128207572962476e-01,1.286893868867541868e-01,1.227479063342254290e-01,1.169565822009459299e-01,1.114662728675008263e-01,1.064034036865955379e-01,1.018623077624023904e-01,9.789846163500560972e-02,9.452446771907217771e-02,9.171120692849267508e-02,8.939401495535442832e-02,8.748013999247271355e-02,8.585427742683893193e-02,8.438270647620822740e-02,8.291793901030879155e-02,8.130410361771633898e-02,7.938289364705986006e-02,7.700208051378398810e-02,7.402936335903927134e-02,7.037071121496790704e-02,6.598715371527806572e-02,6.090284831266561116e-02,5.520186357238493491e-02,4.901658916462246079e-02,4.251176314511980608e-02,3.586659286290597159e-02,2.925759091331119402e-02,2.284495470067712114e-02,1.676334357554683241e-02,1.111686569794773788e-02,5.979225987493904694e-03,1.399425828413219898e-03,-2.589612543555998639e-03,-5.963753377363038843e-03,-8.704881762875010809e-03,-1.080386829912840553e-02,-1.226825793102617745e-02,-1.313110171114857498e-02,-1.345582449463380258e-02,-1.333430264592140937e-02,-1.288036037081752294e-02,-1.222285592610764145e-02,-1.149963559356677149e-02,-1.085039786514006149e-02,-1.040624033427763571e-02,-1.027625531026774876e-02,-1.053472473151522912e-02,-1.121246281208455702e-02,-1.229259356663175463e-02,-1.370967822671805177e-02,-1.535358392465821509e-02,-1.708129080300358968e-02,-1.873781342856136942e-02,-2.018353585066971073e-02,-2.132191589608700005e-02,-2.211957697863566052e-02,-2.261203066821844757e-02,-2.289375807434957527e-02,-2.309762948590807913e-02,-2.337061492185179765e-02,-2.385046303043902513e-02,-2.464517947458105471e-02,-2.581561993549175496e-02,-2.736182652707228047e-02,-2.921595576795951721e-02,-3.124619956494123496e-02,-3.327367407508374092e-02,-3.509903441679686209e-02,-3.653219924986762096e-02,-3.741882383940399459e-02,-3.765897561895526630e-02,-3.721517554313828052e-02,-3.610871649371856507e-02,-3.440536202985981784e-02,-3.219383212888016210e-02,-2.956232358648308578e-02,-2.657951755222540818e-02,-2.328603969238987256e-02,-1.969897733115365951e-02,-1.582771650456802140e-02,-1.169669809295639101e-02,-7.368942375070441572e-03,-2.962583607961096367e-03,1.345912223055679502e-03,5.332506054633515472e-03,8.745729279569571316e-03,1.133085363370036312e-02,1.285464486157751607e-02,1.312842944963825940e-02,1.202688704212621570e-02,9.499251218471914393e-03,5.570164649562415853e-03,3.309093445786652423e-04,-6.073003299234490913e-03,-1.344908632879962540e-02,-2.155390780976909268e-02,-3.007977018650929632e-02,-3.864267762945194917e-02,-4.678388037332061739e-02,-5.398923849702873257e-02,-5.972098772272430023e-02,-6.345328372708110287e-02,-6.470558923125693807e-02,-6.307194869909175938e-02,-5.824623362791883641e-02,-5.004293451142016735e-02,-3.841333882174042397e-02,-2.346061926635114106e-02,-5.458955569940309067e-03,1.512412925679120466e-02,3.761071933326918387e-02,6.111094395740075680e-02,8.454365626996254712e-02,1.066815797086730494e-01,1.262189822279835005e-01,1.418559965501905440e-01,1.523902742232145224e-01,1.568049609832604108e-01,1.543429964995761960e-01,1.445607331796270045e-01,1.273578647240682649e-01,1.029855456063672181e-01,7.203826720175024456e-02,3.543377858432522620e-02,-5.621297455363709339e-03,-4.968911010365498898e-02,-9.518919620290446082e-02,-1.405148890402715955e-01,-1.841610437260769451e-01,-2.248388672050125880e-01,-2.615548531071957838e-01,-2.936404011350295939e-01,-3.207325186671963757e-01,-3.427188722736440596e-01,-3.596672411667692915e-01,-3.717568899642678115e-01,-3.792216863002215721e-01,0.000000000000000000e+00,0.000000000000000000e+00,0.000000000000000000e+00,0.000000000000000000e+00,0.000000000000000000e+00,0.000000000000000000e+00,0.000000000000000000e+00,0.000000000000000000e+00,0.000000000000000000e+00,0.000000000000000000e+00,0.000000000000000000e+00,0.000000000000000000e+00,0.000000000000000000e+00,0.000000000000000000e+00,0.000000000000000000e+00,0.000000000000000000e+00,0.000000000000000000e+00,0.000000000000000000e+00,0.000000000000000000e+00,0.000000000000000000e+00,0.000000000000000000e+00,0.000000000000000000e+00,0.000000000000000000e+00,0.000000000000000000e+00,0.000000000000000000e+00,0.000000000000000000e+00,0.000000000000000000e+00,0.000000000000000000e+00,0.000000000000000000e+00,0.000000000000000000e+00,0.000000000000000000e+00,0.000000000000000000e+00,0.000000000000000000e+00,0.000000000000000000e+00,0.000000000000000000e+00,0.000000000000000000e+00,0.000000000000000000e+00,0.000000000000000000e+00,0.000000000000000000e+00,0.000000000000000000e+00,0.000000000000000000e+00,0.000000000000000000e+00,0.000000000000000000e+00,0.000000000000000000e+00,0.000000000000000000e+00,0.000000000000000000e+00,0.000000000000000000e+00,0.000000000000000000e+00,0.000000000000000000e+00,0.000000000000000000e+00,0.000000000000000000e+00,0.000000000000000000e+00,0.000000000000000000e+00,0.000000000000000000e+00,0.000000000000000000e+00,0.000000000000000000e+00,0.000000000000000000e+00,0.000000000000000000e+00,0.000000000000000000e+00,0.000000000000000000e+00,0.000000000000000000e+00,0.000000000000000000e+00,0.000000000000000000e+00,0.000000000000000000e+00,0.000000000000000000e+00,0.000000000000000000e+00,0.000000000000000000e+00,0.000000000000000000e+00,0.000000000000000000e+00,0.000000000000000000e+00,0.000000000000000000e+00,0.000000000000000000e+00,0.000000000000000000e+00,0.000000000000000000e+00,0.000000000000000000e+00,0.000000000000000000e+00,0.000000000000000000e+00,0.000000000000000000e+00,0.000000000000000000e+00,0.000000000000000000e+00,0.000000000000000000e+00,0.000000000000000000e+00,0.000000000000000000e+00,0.000000000000000000e+00,0.000000000000000000e+00,0.000000000000000000e+00,0.000000000000000000e+00,0.000000000000000000e+00,0.000000000000000000e+00,0.000000000000000000e+00,0.000000000000000000e+00,0.000000000000000000e+00,0.000000000000000000e+00,0.000000000000000000e+00,0.000000000000000000e+00,0.000000000000000000e+00,0.000000000000000000e+00,0.000000000000000000e+00,0.000000000000000000e+00,0.000000000000000000e+00,0.000000000000000000e+00,0.000000000000000000e+00,0.000000000000000000e+00,0.000000000000000000e+00,0.000000000000000000e+00
-3.823095881386999184e-01,-3.812614883572073010e-01,-3.763098225295324339e-01,-3.676923026817210949e-01,-3.556727471195925694e-01,-3.405622853445053333e-01,-3.227370302764537846e-01,-3.026490356818766769e-01,-2.808267532637123698e-01,-2.578609428551592031e-01,-2.343742007525807247e-01,-2.109787719485013424e-01,-1.882342812847383473e-01,-1.666173333938484047e-01,-1.465075852173029769e-01,-1.281870007890284768e-01,-1.118465846445493295e-01,-9.759644847736317907e-02,-8.547711358617707256e-02,-7.547159149213537865e-02,-6.751804048584321427e-02,-6.152111717381211764e-02,-5.735886787625842781e-02,-5.488357098460655559e-02,-5.391824990786286270e-02,-5.425234153951143806e-02,-5.563928381612941176e-02,-5.779813721706943824e-02,-6.042193255024584653e-02,-6.319475646282651793e-02,-6.581644980398411449e-02,-6.803039182301071075e-02,-6.964825556704880294e-02,-7.056660060747413366e-02,-7.077348469088876048e-02,-7.034615984868453076e-02,-6.944062909826592689e-02,-6.827260503177824680e-02,-6.709060632331598217e-02,-6.614403311816946518e-02,-6.564937704500767301e-02,-6.575764547955709194e-02,-6.652823329480125891e-02,-6.791675934559437966e-02,-6.978147971344947353e-02,-7.190538809893565197e-02,-7.402667948516081231e-02,-7.587234933822561977e-02,-7.719312685738197177e-02,-7.779748473785820517e-02,-7.757916926079717890e-02,-7.653150147825291127e-02,-7.474527585840100297e-02,-7.239215961070775973e-02,-6.969800753719183894e-02,-6.691104128498000236e-02,-6.426985329199540187e-02,-6.197542055973444264e-02,-6.017037118631134857e-02,-5.892804476787005807e-02,-5.825224900695678831e-02,-5.808607427139571983e-02,-5.832656455044607502e-02,-5.884219349134506283e-02,-5.949050779902502473e-02,-6.013301991401722585e-02,-6.064498373241993673e-02,-6.092033260699308145e-02,-6.087466703895811487e-02,-6.044907973753257252e-02,-5.961518624942774985e-02,-5.837922279921049090e-02,-5.678295394967833309e-02,-5.490164552429385725e-02,-5.284070317261155975e-02,-5.073115209675272547e-02,-4.872334839159452036e-02,-4.697858560345345019e-02,-4.565712600846805191e-02,-4.490073948503407048e-02,-4.481093496158623790e-02,-4.542828472043743820e-02,-4.671954613675351892e-02,-4.857654979314385973e-02,-5.082593350154041706e-02,-5.324525874069578613e-02,-5.558153083549381701e-02,-5.757146070627867235e-02,-5.896422041426183092e-02,-5.954500564853185129e-02,-5.915564116855091814e-02,-5.771047898612711308e-02,-5.520892787819042802e-02,-5.174487834475408748e-02,-4.750900559771747272e-02,-4.277848714826840842e-02,-3.789227746955294712e-02,-3.321522403648163868e-02,-2.909793336602599714e-02,-2.584048216766261091e-02,-2.366606004784749945e-02,-2.270697877071947354e-02,-2.300296772699125109e-02,-2.450971162065859743e-02,-2.711364775830990559e-02,-3.064903187170521515e-02,-3.491465254694125359e-02,-3.968868647370243918e-02,-4.474157008185401796e-02,-4.984791440782871536e-02,-5.479772606532559709e-02,-5.940531616515064284e-02,-6.351432425955066963e-02,-6.699981057487554292e-02,-6.976921047261537556e-02,-7.176147309450395251e-02,-7.294319872156294904e-02,-7.330412793789893577e-02,-7.285621862726200659e-02,-7.163758194300762216e-02,-6.971818490729780882e-02,-6.720273917754207571e-02,-6.422819653327389855e-02,-6.095548229780437671e-02,-5.755587913867558914e-02,-5.419397081095728846e-02,-5.101090017656061820e-02,-4.811138315887909106e-02,-4.555644064053470527e-02,-4.336289721193295477e-02,-4.150952201410892245e-02,-3.994788861477682751e-02,-3.861495438336385450e-02,-3.744475063897870909e-02,-3.637769333601833383e-02,-3.536706973038031970e-02,-3.438330050090088880e-02,-3.341718665007840927e-02,-3.248207081632546039e-02,-3.161271345287437057e-02,-3.085948566803584092e-02,-3.027970719227424806e-02,-2.992870857150506034e-02,-2.985083389940204612e-02,-3.006927939313700296e-02,-3.057557965206378348e-02,-3.132245057611604544e-02,-3.222401961824078453e-02,-3.316475268703859142e-02,-3.401497485027648454e-02,-3.464864642217194840e-02,-3.495889212440313198e-02,-3.486888574740772129e-02,-3.433833346009485671e-02,-3.336652541633201852e-02,-3.199187021863219432e-02,-3.028719632819917504e-02,-2.835102135435762713e-02,-2.629652554210158005e-02,-2.424016595155919704e-02,-2.229014567832399846e-02,-2.053385577600585349e-02,-1.902572963326756156e-02,-1.778057488287858659e-02,-1.677645627785457477e-02,-1.596471143659729947e-02,-1.528038026349550285e-02,-1.464983304800817829e-02,-1.399814523155148462e-02,-1.325878680816229734e-02,-1.238379163686628183e-02,-1.135020155888744574e-02,-1.016026119622548234e-02,-8.836231016913420264e-03,-7.413375683214170828e-03,-5.935347593975476982e-03,-4.454353246099674798e-03,-3.034929601248535780e-03,-1.756697560845937390e-03,-7.103503534658293060e-04,1.534958736617322806e-05,3.508790962723263868e-04,2.593418055094346081e-04,-2.582468413788882805e-04,-1.163080825707503603e-03,-2.378699027312723008e-03,-3.788756797148974328e-03,-5.235214131092246620e-03,-6.522621499079619793e-03,-7.432708599874101457e-03,-7.748307642947988537e-03,-7.280447633512304902e-03,-5.891738497724472411e-03,-3.512589650464571951e-03,-1.496298552398759891e-04,4.113996010564284662e-03,9.126282293054555766e-03,1.467971682738041656e-02,2.052718537121059686e-02,2.639924195166988910e-02,3.202341296329754700e-02,3.714527449664430103e-02,4.154898209498247841e-02,4.507443766942319935e-02,4.762928762080519823e-02,4.919490649984755576e-02,4.982596334102135094e-02,4.964336603486256549e-02,4.882090943912956171e-02,4.756743411748236283e-02,4.610760420804715931e-02,4.466399325973943735e-02,4.344195899034779956e-02,4.261806197425379444e-02,4.233203117505138918e-02,4.268142465389850038e-02,4.371807733031166793e-02,4.544599550343612210e-02,4.782087681442592081e-02,5.075234155323202212e-02,5.411067259767480403e-02,5.773836878069118356e-02,6.146446896140660837e-02,6.511993714319538884e-02,6.855430235292178653e-02,7.165338914359360711e-02,7.435524892684848564e-02,7.665906763586391448e-02,7.862222219929086708e-02,8.034446785430940374e-02,8.194318679664823468e-02,8.352641523637166499e-02,8.517058533246253671e-02,8.690834930581406437e-02,8.872776381149805047e-02,9.057918187206520644e-02,9.238518835149198138e-02,9.405205920337196546e-02,9.548325365197961323e-02,9.659409782176951731e-02,9.732494748321006417e-02,9.764991814281512306e-02,9.757933088139225664e-02,9.715565884248841821e-02,9.644476759295093904e-02,9.552557191723280716e-02,9.448063947514158400e-02,9.338888143686883969e-02,9.232070593631437616e-02,9.133533936393439800e-02,9.047986102033510336e-02,8.979005812093546202e-02,8.929228042858811110e-02,8.900344546148719616e-02,8.892690023981618397e-02,8.904525253132147822e-02,8.931377030908825565e-02,8.965767923391913807e-02,8.997547294148640351e-02,9.014932423083228674e-02,9.006170007972047475e-02,8.961446443419067431e-02,8.874544360501498974e-02,8.743887923880784563e-02,8.572897124511125178e-02,8.369737426873689878e-02,8.146512085655746582e-02,7.917865145315451658e-02,7.699058995056276555e-02,7.503839647983617800e-02,7.342557550347546258e-02,7.220882681955968774e-02,7.139190171712232746e-02,7.092623467141428995e-02,7.071924822937643296e-02,7.064973112766868846e-02,7.058597257632154287e-02,7.040140964287465442e-02,6.998582267204300766e-02,6.925328881937074799e-02,6.814814536262416012e-02,6.664830848268929464e-02,6.476450878302630887e-02,6.253599180222253751e-02,6.002565434701501168e-02,5.731660732095455318e-02,5.450817641967220517e-02,5.170774304937654497e-02,4.901831210578950354e-02,4.652560095190420852e-02,4.428839927537148863e-02,4.233387104228692605e-02,4.065815419124160085e-02,3.923172728272478899e-02,3.800791763047096233e-02,3.693239703320323059e-02,3.595171556456711742e-02,3.501896815532102442e-02,3.409519574310836132e-02,3.314749158309915344e-02,3.214732563299217694e-02,3.107161660462482572e-02,2.990517039687241516e-02,2.864183955937445181e-02,2.728466910851033017e-02,2.584728380927722377e-02,2.435743197561768270e-02,2.286147241080154283e-02,2.142722009011619258e-02,2.014218246817608624e-02,1.910545681649664096e-02,1.841398432948500308e-02,1.814577647550574824e-02,1.834350071700001708e-02,1.900237048271509813e-02,2.006622113669604551e-02,2.143303892208547196e-02,2.296708084176105405e-02,2.451316726953608680e-02,2.591071061006127579e-02,2.700693479532173535e-02,2.766842610085108040e-02,2.778973276200872797e-02,2.729913066451204046e-02,2.616344070090770996e-02,2.439318773978221833e-02,2.204665198151730190e-02,1.922975546883299094e-02,1.608996270155077860e-02,1.280508687177116592e-02,9.569843287037275645e-03,6.582451674536452316e-03,4.031235530059016844e-03,2.080214063803635920e-03,8.542381812598103322e-04,4.255129420084022328e-04,8.029336342293146066e-04,1.925830817896895296e-03,3.665365221812635823e-03,5.836922333473431625e-03,8.223593191881973380e-03,1.060656684251216376e-02,1.279581647937224134e-02,1.465428404914060311e-02,1.611025511602590457e-02,1.715523934241975842e-02,1.782820651494640765e-02,1.819126015697403523e-02,1.830477459029675180e-02,1.820893722922008184e-02,1.791468965072343447e-02,1.740426090410950033e-02,1.664068451849219296e-02,1.558426450069514031e-02,1.421078637557574888e-02,1.252454681594406156e-02,1.056246777084504651e-02,8.390913998230388818e-03,6.098070650473556668e-03,3.782183169747025623e-03,1.536210189231770537e-03,-5.668760036873141377e-04,-2.482993403908677951e-03,-4.198069100632582581e-03,-5.722512621292159124e-03,-7.081668801005086208e-03,-8.305251613211911410e-03,-9.417652756437524045e-03,-1.042898890802753525e-02,-1.132619901374909595e-02,-1.206513170952800210e-02,-1.256597436240497988e-02,-1.271407725914841004e-02,-1.236758194391725761e-02,-1.137309154495336899e-02,-9.589759915909490395e-03,-6.919674884190744717e-03,-3.338753373464791504e-03,1.080004509955827859e-03,6.157433955254875552e-03,1.161559937794410559e-02,1.710116348211726880e-02,2.222278020428346268e-02,2.659718764160901028e-02,2.989465439842005010e-02,3.187457887092363246e-02,3.240627312928470727e-02,3.147398003172602321e-02,2.916757002729442744e-02,2.566238787715241151e-02,2.119327114933159534e-02,1.602767099566599490e-02,1.044101545491506883e-02,4.695532241876456889e-03,-9.769357517043651597e-04,-6.387145454556747599e-03,-1.139379481597158940e-02,-1.590020486676781142e-02,-1.984353943980727425e-02,-2.318182291330669539e-02,-2.588476520181370519e-02,-2.793065357005070429e-02,-2.930695261594124662e-02,-3.001112974648184606e-02,-3.005039560891702849e-02,-2.944095007286760129e-02,-2.820803166242683013e-02,-2.638833644036910758e-02,-2.403536990027287795e-02,-2.122609786557970793e-02,-1.806556576286877033e-02,-1.468635263029966637e-02,-1.124195535771733284e-02,-7.895361716604520561e-03,-4.804529023772503155e-03,-2.106700315549238194e-03,9.573834105442058276e-05,1.745344416910733819e-03,2.834516230100322942e-03,3.404779524449311808e-03,3.539227434135689462e-03,3.347213678129715500e-03,2.944359688853529465e-03,2.434762193582013304e-03,1.900692254681459348e-03,1.399932638970056769e-03,9.678367297108845125e-04,6.214437157472394238e-04,3.642435026652130446e-04,1.912802441833652035e-04,9.439051488738772657e-05,6.565362745544346787e-05,9.616554825311884620e-05,1.697527261151786555e-04,2.545352057675677676e-04,2.963142866069203756e-04,2.177125585315215211e-04,-7.405377161580277792e-05,-6.713901155409017236e-04,-1.646940573344561664e-03,-3.036075735417730678e-03,-4.825968800053805248e-03,-6.954765786966340957e-03,-9.321412318036369216e-03,-1.180213654328759847e-02,-1.426715649723218210e-02,-1.659342319489340301e-02,-1.867331716395348104e-02,-2.042075123592700103e-02,-2.177467523094079802e-02,-2.269873480560313100e-02,-2.317668901165796658e-02,-2.320462588551483116e-02,-2.278205005240638986e-02,-2.190554914661307917e-02,-2.056952321124756039e-02,-1.877531762670381701e-02,-1.654481534999995701e-02,-1.393190400680734652e-02,-1.102631685809277867e-02,-7.948111429875495335e-03,-4.836251721710755139e-03,-1.837269117321111041e-03,9.027576627469980318e-04,3.243866504063173777e-03,5.058252751423302114e-03,6.239153711590129589e-03,6.713431532835226201e-03,6.455410541264394383e-03,5.496452330651714971e-03,3.925274083006043309e-03,1.878231234262871642e-03,-4.769122622157134610e-04,-2.958627523991058141e-03,-5.386729268053898345e-03,-7.594007950575091571e-03,-9.436599650512706577e-03,-1.080543659457571665e-02,-1.163775144014783484e-02,-1.192489539276172031e-02,-1.171318748019611888e-02,-1.109606280464852518e-02,-1.019716975040892322e-02,-9.146684088023446582e-03,-8.056933013496376389e-03,-7.005315912405906710e-03,-6.029436851906141114e-03,-5.133314577571651896e-03,-4.300057711589992150e-03,-3.506648946220003622e-03,-2.737384775110002916e-03,-1.993404624792424230e-03,-1.297263967180568812e-03,-6.928537452661172671e-04,-2.419549483173794654e-04,-1.939093869191707239e-05,-1.078234272921932196e-04,-5.905071607029756557e-04,-1.538993651206508641e-03,-2.995549369911957964e-03,-4.954393002860198701e-03,-7.348015181748554850e-03,-1.004385340470370994e-02,-1.285261873070126307e-02,-1.554511983016815778e-02,-1.787352221463701929e-02,-1.959505356143528138e-02,-2.049717169285798085e-02,-2.042197000433855839e-02,-1.928566315363800659e-02,-1.708792747835033779e-02,-1.390767305491644179e-02,-9.887047863565315980e-03,-5.210090478762134658e-03,-8.262114119801419851e-05,5.282589712269786415e-03,1.067380909935025657e-02,1.588219324896573970e-02,2.070009937021978150e-02,2.491919839707260054e-02,2.833133518895566277e-02,3.073361874617750941e-02,3.193735468467040484e-02,3.178024814442376167e-02,3.014306121761068519e-02,2.697183172113650287e-02,2.230256951737643462e-02,1.628080134248608909e-02,9.168217209628683542e-03,1.332944715257503802e-03,-6.774769494523397856e-03,-1.465641222938727888e-02,-2.180348198217669023e-02,-2.773748168968077563e-02,-3.205073955327709251e-02,-3.444580659219546176e-02,-3.476748622464654465e-02,-3.301936603069058340e-02,-2.935958703212044468e-02,-2.407709462118870491e-02,-1.755455087798164782e-02,-1.022604062059020123e-02,-2.538113111163151428e-03,5.079967464777865836e-03,1.223659986657094079e-02,1.859209623412740389e-02,2.386857475963298156e-02,2.785554349976667593e-02,3.041255774933144043e-02,3.147151010848830283e-02,3.103955198183802611e-02,2.920117512761301326e-02,2.611660087558476118e-02,2.201412437156100368e-02,1.717604200059707348e-02,1.191940774653000960e-02,6.573278636018359614e-03,1.454189947834781628e-03,-3.157790870512817375e-03,-7.039556181491499545e-03,-1.003996001327692872e-02,-1.208827173227842826e-02,-1.319466274305349136e-02,-1.344175259813074931e-02,-1.296846596321186117e-02,-1.194874547849169785e-02,-1.056731900957892482e-02,-8.995205199068828303e-03,-7.369618051132155456e-03,-5.783294939483999732e-03,-4.284917324624435038e-03,-2.888131070928431476e-03,-1.584796336097342960e-03,-3.579609001921715047e-04,8.084854016654542154e-04,1.923423760739871114e-03,2.983550738995726336e-03,3.969335154530025979e-03,4.843778188376177476e-03,5.556693444783079860e-03,6.054933677998411944e-03,6.294966167473711911e-03,6.252425986668013608e-03,5.924915462705481785e-03,5.327302659421334283e-03,4.482362986328614421e-03,3.412301256907601058e-03,2.134935633059711554e-03,6.637640269530368717e-04,-9.899003089944751269e-04,-2.811995016911537568e-03,-4.777137813443519017e-03,-6.838979429756029613e-03,-8.924278215780281562e-03,-1.093405733174238406e-02,-1.275164441007433161e-02,-1.425442562617984521e-02,-1.532568416672636796e-02,-1.586451726787016861e-02,-1.579372473946192429e-02,-1.506700092032496087e-02,-1.367684088758117263e-02,-1.166193863095443123e-02,-9.109819191260849075e-03,-6.150997206966922828e-03,-2.944215161924805188e-03,3.448847868611809218e-04,3.567158086940394081e-03,6.609029856346178636e-03,9.400680077853339894e-03,1.191005627651841280e-02,1.412536770549993950e-02,1.603320284581275304e-02,1.759953961310464776e-02,1.875857876226644932e-02,1.941207115792329893e-02,1.943955355870311333e-02,1.871800188490235078e-02,1.714915002061014743e-02,1.469212568702079995e-02,1.139492948922328844e-02,7.413931674798972249e-03,3.012625096582610511e-03,-1.461942091781769180e-03,-5.620884729385660847e-03,-9.085519095229172004e-03,-1.153876815794960438e-02,-1.276580474519336747e-02,-1.267895087305869611e-02,-1.132525488964260599e-02,-8.875387206141494706e-03,-5.594388966104600451e-03,-1.799148206970887457e-03,2.189745992627163077e-03,6.093713469868233465e-03,9.711357345563609300e-03,1.293639844733840763e-02,1.575649713137861410e-02,1.823666666843019174e-02,2.049321395069143500e-02,2.266356292867937466e-02,2.487642176607794686e-02,2.722595360038857631e-02,2.975304674565581661e-02,3.243706713165415284e-02,3.520121821307767296e-02,3.793150312838919347e-02,4.050446722308058412e-02,4.281620349728784691e-02,4.480599283553699658e-02,4.647126106841741044e-02,4.787365587836178715e-02,4.913620381780291202e-02,5.043024160272277512e-02,5.195205635654944615e-02,5.389218110470720552e-02,5.640238612352239250e-02,5.956719151780979354e-02,6.338799863015766312e-02,6.778527865679460918e-02,7.261692861761064044e-02,7.770410265254924786e-02,8.285536686507322113e-02,8.788528538536159729e-02,9.262788729814129540e-02,9.694460111587296924e-02,1.007242435680877624e-01,1.038759901968966809e-01,1.063227179988144311e-01,1.080027182028521077e-01,1.088806086750973845e-01,1.089615050751677472e-01,1.083021445697399526e-01,1.070159707774452212e-01,1.052715089399152704e-01,1.032837598050622557e-01,1.012983881560768212e-01,9.956986519597885166e-02,9.833755588907973355e-02,9.780582649148830687e-02,9.813269084517108054e-02,9.942647735571116807e-02,1.017460272119990322e-01,1.051008584607399793e-01,1.094512133626492356e-01,1.147086469719732632e-01,1.207360588131883156e-01,1.273462126624711199e-01,1.342997397514796576e-01,1.413054190978630109e-01,1.480275844190237500e-01,1.541054960628072956e-01,1.591845584316171347e-01,1.629528202693808214e-01,1.651738788653117629e-01,1.657099369999650018e-01,1.645333048947788257e-01,1.617280339461389937e-01,1.574837132752631985e-01,1.520812062005117427e-01,1.458689734126912552e-01,1.392312408113711708e-01,1.325532155279166013e-01,1.261901276723380871e-01,1.204451503485809843e-01,1.155578807576387035e-01,1.117024681625215787e-01,1.089923929271360975e-01,1.074856598824844300e-01,1.071830783109045809e-01,1.080178448242287842e-01,1.098423174856602014e-01,1.124194208341386669e-01,1.154226275239050165e-01,1.184469447050073565e-01,1.210342118100679043e-01,1.227140267972640364e-01,1.230557642445154198e-01,1.217214564505654795e-01,1.185071625456072947e-01,1.133634752399133999e-01,1.063933897425682618e-01,9.783306115235358702e-02,8.802286760181213254e-02,7.737367456812795086e-02,6.633079778882693123e-02,5.533736370692560885e-02,4.479924385130554937e-02,3.505507715083695103e-02,2.635492280573557833e-02,1.884920234136312073e-02,1.258806214745731428e-02,7.530739434779120528e-03,3.563732458909281246e-03,5.250011636425968523e-04,-1.770434974415301468e-03,-3.508789137202190586e-03,-4.863197172038382331e-03,-5.986550816196297385e-03,-7.008330868369928163e-03,-8.033149551247351430e-03,-9.140722389185916563e-03,-1.038599176479803460e-02,-1.179696568539747616e-02,-1.337048596977064366e-02,-1.506950835448460022e-02,-1.682532187515749580e-02,-1.854538632140743937e-02,-2.012547477997455453e-02,-2.146434556555711082e-02,-2.247834641449501097e-02,-2.311231757745801918e-02,-2.334420474136704102e-02,-2.318369548085119983e-02,-2.266762895939357023e-02,-2.185550793491006227e-02,-2.082666965722749369e-02,-1.967769769561467444e-02,-1.851777910943417510e-02,-1.746171200880032928e-02,-1.662157992342315482e-02,-1.609768005674102817e-02,-1.596997268535656558e-02,-1.629233697103922573e-02,-1.709019891122631057e-02,-1.836000087578500833e-02,-2.007001037128276072e-02,-2.216315419730548186e-02,-2.456087284858981049e-02,-2.716566239355214935e-02,-2.986198327138754952e-02,-3.251835188719883613e-02,-3.499369731058804556e-02,-3.714775352067877651e-02,-3.885219037317495794e-02,-3.999938936026346120e-02,-4.050815208599276018e-02,-4.032759515605637696e-02,-3.944013309885184559e-02,-3.786286848883459177e-02,-3.564678374044908532e-02,-3.287403100385010574e-02,-2.965298093506368513e-02,-2.611023017948614633e-02,-2.238033077495041323e-02,-1.859549027884804459e-02,-1.487738448192188825e-02,-1.133255032017551137e-02,-8.052137554756526316e-03,-5.116045895594402947e-03,-2.600169956150264697e-03,-5.837250946832744578e-04,8.459078171727838847e-04,1.590559319538014174e-03,1.540154572359502417e-03,5.749761401202509517e-04,-1.426088598422996104e-03,-4.570680229766693227e-03,-8.932273332611454994e-03,-1.452495267575986369e-02,-2.127570403323368955e-02,-2.899800221879485218e-02,-3.737393385174671290e-02,-4.595386595566601506e-02,-5.417791514414551507e-02,-6.141498869453108217e-02,-6.700952696183788693e-02,-7.032570351488669214e-02,-7.078393479037370373e-02,-6.789215026168095302e-02,-6.127776149528516014e-02,-5.072421110408556477e-02,-3.621246269166464998e-02,-1.796380870291134843e-02,3.524620673770947031e-03,2.746328855110924741e-02,5.278248612368462156e-02,7.817792485894178856e-02,1.021878943156499936e-01,1.232938317464793987e-01,1.400312624705644660e-01,1.510966091903760689e-01,1.554372065624100296e-01,1.523160374807506767e-01,1.413485226069415568e-01,1.225146094456112805e-01,9.615342589308244203e-02,6.294760397648405115e-02,2.389938279496701262e-02,-1.970603556685841112e-02,-6.635790084679538126e-02,-1.144032434399229331e-01,-1.621529450186732779e-01,-2.079986840515887780e-01,-2.505236590622488824e-01,-2.885889205217125886e-01,-3.213807972620578157e-01,-3.484140155229479285e-01,-3.694973084838014121e-01,-3.846769715106393428e-01,-3.941742990313223394e-01,0.000000000000000000e+00,0.000000000000000000e+00,0.000000000000000000e+00,0.000000000000000000e+00,0.000000000000000000e+00,0.000000000000000000e+00,0.000000000000000000e+00,0.000000000000000000e+00,0.000000000000000000e+00,0.000000000000000000e+00,0.000000000000000000e+00,0.000000000000000000e+00,0.000000000000000000e+00,0.000000000000000000e+00,0.000000000000000000e+00,0.000000000000000000e+00,0.000000000000000000e+00,0.000000000000000000e+00,0.000000000000000000e+00,0.000000000000000000e+00,0.000000000000000000e+00,0.000000000000000000e+00,0.000000000000000000e+00,0.000000000000000000e+00,0.000000000000000000e+00,0.000000000000000000e+00,0.000000000000000000e+00,0.000000000000000000e+00,0.000000000000000000e+00,0.000000000000000000e+00,0.000000000000000000e+00,0.000000000000000000e+00,0.000000000000000000e+00,0.000000000000000000e+00,0.000000000000000000e+00,0.000000000000000000e+00,0.000000000000000000e+00,0.000000000000000000e+00,0.000000000000000000e+00,0.000000000000000000e+00,0.000000000000000000e+00,0.000000000000000000e+00,0.000000000000000000e+00,0.000000000000000000e+00,0.000000000000000000e+00,0.000000000000000000e+00,0.000000000000000000e+00,0.000000000000000000e+00,0.000000000000000000e+00,0.000000000000000000e+00,0.000000000000000000e+00,0.000000000000000000e+00,0.000000000000000000e+00,0.000000000000000000e+00,0.000000000000000000e+00,0.000000000000000000e+00,0.000000000000000000e+00,0.000000000000000000e+00,0.000000000000000000e+00,0.000000000000000000e+00,0.000000000000000000e+00,0.000000000000000000e+00,0.000000000000000000e+00,0.000000000000000000e+00,0.000000000000000000e+00,0.000000000000000000e+00,0.000000000000000000e+00,0.000000000000000000e+00,0.000000000000000000e+00,0.000000000000000000e+00,0.000000000000000000e+00,0.000000000000000000e+00,0.000000000000000000e+00,0.000000000000000000e+00,0.000000000000000000e+00,0.000000000000000000e+00,0.000000000000000000e+00,0.000000000000000000e+00,0.000000000000000000e+00,0.000000000000000000e+00,0.000000000000000000e+00,0.000000000000000000e+00,0.000000000000000000e+00,0.000000000000000000e+00,0.000000000000000000e+00,0.000000000000000000e+00,0.000000000000000000e+00,0.000000000000000000e+00,0.000000000000000000e+00,0.000000000000000000e+00,0.000000000000000000e+00,0.000000000000000000e+00,0.000000000000000000e+00,0.000000000000000000e+00,0.000000000000000000e+00,0.000000000000000000e+00,0.000000000000000000e+00,0.000000000000000000e+00,0.000000000000000000e+00,0.000000000000000000e+00,0.000000000000000000e+00,0.000000000000000000e+00,0.000000000000000000e+00,0.000000000000000000e+00,0.000000000000000000e+00,0.000000000000000000e+00,0.000000000000000000e+00,0.000000000000000000e+00,0.000000000000000000e+00,0.000000000000000000e+00
