7.297423697898722805e-01,7.224204069829208708e-01,7.082701213094334536e-01,6.888364883684398032e-01,6.656807089545168088e-01,6.402225125339183753e-01,6.136164885982111628e-01,5.866752484638056986e-01,5.598456635554062144e-01,5.332389661084226962e-01,5.067067505692756102e-01,4.799453885816769572e-01,4.526075838937010931e-01,4.244031740997883939e-01,3.951771134833905186e-01,3.649567908232613234e-01,3.339646718922539281e-01,3.025979165218919964e-01,2.713821273711193305e-01,2.409090438510428367e-01,2.117686527012269115e-01,1.844863046709011301e-01,1.594744986811409138e-01,1.370060851010051484e-01,1.172104244977086318e-01,1.000879252624340965e-01,8.553480309003594351e-02,7.337055861876480567e-02,6.336324738316134741e-02,5.524969030660824287e-02,4.874965027569824055e-02,4.357515212828026036e-02,3.943760500763258264e-02,3.605535268019996464e-02,3.316289113965801422e-02,3.052116708188108707e-02,2.792706679382497489e-02,2.522006991577145987e-02,2.228520569702874959e-02,1.905297110119652179e-02,1.549764365446233000e-02,1.163525381157312980e-02,7.521429745456992624e-03,3.247929280568394566e-03,-1.063642286651806084e-03,-5.271253768938426870e-03,-9.224222177591442223e-03,-1.277660530681707686e-02,-1.580151311796582775e-02,-1.820452568756277326e-02,-1.993353109085807887e-02,-2.098316767113430140e-02,-2.139372247635237118e-02,-2.124528384177288079e-02,-2.064810972477965079e-02,-1.973066261349717965e-02,-1.862826970644105781e-02,-1.747583321549668264e-02,-1.640493099297843718e-02,-1.554176400549086949e-02,-1.500253803119877202e-02,-1.488596224917183158e-02,-1.526430613538608955e-02,-1.617414389131277205e-02,-1.760767703467682604e-02,-1.950673250826375632e-02,-2.176301677673684459e-02,-2.422731863633319910e-02,-2.672692286724091815e-02,-2.908743433480775673e-02,-3.115427658693125518e-02,-3.280971265172330509e-02,-3.398263556287280107e-02,-3.465001324377047637e-02,-3.483035150733820168e-02,-3.457152845027226806e-02,-3.393758507298726829e-02,-3.299920721109583094e-02,-3.182985311429148423e-02,-3.050594879609734231e-02,-2.910748808824289297e-02,-2.771564458205064835e-02,-2.640681546069632152e-02,-2.524603135944672797e-02,-2.428348967100645711e-02,-2.355528218725073605e-02,-2.308610873774094574e-02,-2.289083680773797494e-02,-2.297334712127588330e-02,-2.332331268198783308e-02,-2.391266226039053672e-02,-2.469323038782016838e-02,-2.559628406459663746e-02,-2.653408402869166655e-02,-2.740400188997229106e-02,-2.809679758320454343e-02,-2.851056363742468860e-02,-2.856884552853842726e-02,-2.823763717036011436e-02,-2.753542022087829971e-02,-2.653349618766671913e-02,-2.534709457283486692e-02,-2.411910388202692657e-02,-2.299884785916220253e-02,-2.211950120693351868e-02,-2.157898140689942096e-02,-2.142853382253762096e-02,-2.167017250623154076e-02,-2.226096227050163370e-02,-2.312105829111009425e-02,-2.414311759100329705e-02,-2.520213069939314723e-02,-2.616615132420583439e-02,-2.690873871119305039e-02,-2.732298262838315367e-02,-2.733573463810851090e-02,-2.691972896514229288e-02,-2.610083673644720409e-02,-2.495802937454395798e-02,-2.361467224253882904e-02,-2.222158246316332034e-02,-2.093510694458669899e-02,-1.989567260917982083e-02,-1.921126444223020605e-02,-1.894703759615991995e-02,-1.912027118198187173e-02,-1.970011822982056793e-02,-2.061227104728622500e-02,-2.174829473738511265e-02,-2.297833724375595091e-02,-2.416550627797213815e-02,-2.518077766561570285e-02,-2.591761857010886974e-02,-2.630451035799374893e-02,-2.631221029923703700e-02,-2.595308690119749184e-02,-2.527264292285610545e-02,-2.433628347263621858e-02,-2.321563285809150057e-02,-2.197803641417844789e-02,-2.068082225160956453e-02,-1.936971002082761920e-02,-1.807966140021022294e-02,-1.683637328035456765e-02,-1.565710243197892398e-02,-1.455044100778589596e-02,-1.351545666368984822e-02,-1.254089969242178776e-02,-1.160531576482751528e-02,-1.067892142191256312e-02,-9.727582760727212369e-03,-8.718343660741227283e-03,-7.625293318092556637e-03,-6.434344987821561355e-03,-5.145684177202833331e-03,-3.773351300586506515e-03,-2.342418949543961446e-03,-8.848376770066244523e-04,5.649805153170198244e-04,1.973932522310195385e-03,3.312519167010014205e-03,4.555431766646252968e-03,5.681544080790741462e-03,6.675090538279708843e-03,7.528714554770794126e-03,8.247712891088516268e-03,8.854630436780031033e-03,9.393300464957900567e-03,9.930503528568265792e-03,1.055285776604405687e-02,1.135774968754208782e-02,1.243957424673831566e-02,1.387475471712845687e-02,1.570981493950586450e-02,1.795550239983922935e-02,2.058715213328758328e-02,2.354910546016298137e-02,2.676004038727864548e-02,3.011614310562707800e-02,3.349098431787440877e-02,3.673536891970171497e-02,3.968349716921724252e-02,4.216896432360199565e-02,4.404797182291041169e-02,4.522385212948478589e-02,4.566740192526235614e-02,4.542851373991374508e-02,4.463560671979946437e-02,4.348168996965275784e-02,4.219968150430170734e-02,4.103288380697227983e-02,4.020666044648333465e-02,3.990488342276800326e-02,4.025307533845912111e-02,4.131009975940333478e-02,4.306905028463746399e-02,4.546524018789408622e-02,4.838783599234103977e-02,5.169265512433548343e-02,5.521491223990177000e-02,5.878145075596237501e-02,6.222284534499918085e-02,6.538602950982827511e-02,6.814704528092202507e-02,7.042236454735570361e-02,7.217732984765014292e-02,7.343070471661833354e-02,7.425385199906141265e-02,7.476295914531963516e-02,7.510464612224117265e-02,7.543768437206162247e-02,7.591407270591046808e-02,7.666184904047451676e-02,7.777145939306776001e-02,7.928735948078947937e-02,8.120576795877461340e-02,8.347793276564539899e-02,8.601715231734070877e-02,8.870803358023066076e-02,9.141718895749444129e-02,9.400459149135760584e-02,9.633452734197264777e-02,9.828549306112856210e-02,9.975914722847652183e-02,1.006883526865621076e-01,1.010433833517222491e-01,1.008348073991188754e-01,1.001120517547115923e-01,9.895754865139858025e-02,9.747719620779342342e-02,9.578862347493914686e-02,9.400911906788630978e-02,9.224494635644414631e-02,9.058337649777617462e-02,8.908807429820075896e-02,8.779742190180077344e-02,8.672445681704041287e-02,8.585710562136411594e-02,8.515843837948711137e-02,8.456775634703042610e-02,8.400355816737832548e-02,8.336901326123086209e-02,8.256007307933407868e-02,8.147597892236067840e-02,8.003132705773850775e-02,7.816772177879206807e-02,7.586236814361604908e-02,7.313167462054981360e-02,7.002909116836293635e-02,6.663731135530312488e-02,6.305640320812085087e-02,5.939083161743535788e-02,5.573802693730890712e-02,5.217970679341375068e-02,4.877642582030303209e-02,4.556559526916375419e-02,4.256200732733900899e-02,3.975850865190650590e-02,3.712533915619312119e-02,3.460946953195854353e-02,3.213695986981505992e-02,2.962045055871962915e-02,2.697145456343143580e-02,2.411468921953367067e-02,2.100048061975839236e-02,1.761183634368309117e-02,1.396460840081147070e-02,1.010135471459025491e-02,6.081273486827451502e-03,1.969152577361313328e-03,-2.174565179662858207e-03,-6.301787193724051224e-03,-1.038259523944676070e-02,-1.440845793644585440e-02,-1.839223495275014303e-02,-2.236451412587498952e-02,-2.636614067437450387e-02,-3.043749732455295828e-02,-3.460655683295277979e-02,-3.887944822978819936e-02,-4.323745472864758826e-02,-4.764177348898548242e-02,-5.204331317853792827e-02,-5.639206638306473729e-02,-6.064133841662332908e-02,-6.474628306866830885e-02,-6.866057583334647663e-02,-7.233587837145669108e-02,-7.572585414430048345e-02,-7.879310132831182645e-02,-8.151610197135596148e-02,-8.389394186977493229e-02,-8.594765375747812075e-02,-8.771790870915936733e-02,-8.925979568577588341e-02,-9.063687400355940893e-02,-9.191730438876495601e-02,-9.317301525975051069e-02,-9.447951984492429511e-02,-9.591220663715614714e-02,-9.753646180631206364e-02,-9.939308977821439961e-02,-1.014845283972388434e-01,-1.037683319357637496e-01,-1.061617037484785808e-01,-1.085563630381147227e-01,-1.108384552975149179e-01,-1.129057415073191489e-01,-1.146765562129140881e-01,-1.160904670268138594e-01,-1.171043387276524267e-01,-1.176879329254811452e-01,-1.178218550148725507e-01,-1.174987460257359700e-01,-1.167268011349766599e-01,-1.155336182876203349e-01,-1.139681851051522199e-01,-1.120996943462548856e-01,-1.100136714871509935e-01,-1.078072590844818407e-01,-1.055849338655172193e-01,-1.034536749002820250e-01,-1.015152775236164151e-01,-9.985541870133229914e-02,-9.853270754309977064e-02,-9.757236648738475127e-02,-9.696659393268958205e-02,-9.667947048921689268e-02,-9.665269511449517403e-02,-9.681050186018251569e-02,-9.706456758080454772e-02,-9.731998583740103514e-02,-9.748242903454477915e-02,-9.746604744940387532e-02,-9.720140617341534173e-02,-9.664257432926615099e-02,-9.577257228051279381e-02,-9.460645459242070232e-02,-9.319110531801921837e-02,-9.160102810075546054e-02,-8.993042475207765896e-02,-8.828294416081021445e-02,-8.676105721556358341e-02,-8.545708664061063553e-02,-8.444692991236808777e-02,-8.378524179447617570e-02,-8.349939685632962183e-02,-8.358127878074636530e-02,-8.397993526719295387e-02,-8.460054330943093948e-02,-8.531319279749491336e-02,-8.597060704241776818e-02,-8.643072008458559108e-02,-8.657862270232841162e-02,-8.634238830899154671e-02,-8.569963633904742473e-02,-8.467550877983330559e-02,-8.333500852775747869e-02,-8.177240935981648640e-02,-8.009949115679519671e-02,-7.843390978662333202e-02,-7.688855895466005508e-02,-7.556197692898408702e-02,-7.452947737165480091e-02,-7.383534025424716429e-02,-7.348737864709012357e-02,-7.345532976449191398e-02,-7.367365664134555014e-02,-7.404819818333228942e-02,-7.446536373943866971e-02,-7.480275662081521670e-02,-7.494074976265292787e-02,-7.477423141189673550e-02,-7.422267640910627795e-02,-7.323666252913996200e-02,-7.180042199102637523e-02,-6.993173852309429728e-02,-6.768095778017593767e-02,-6.512944763178639407e-02,-6.238583391041670201e-02,-5.957801599705956491e-02,-5.684092912853352941e-02,-5.430271168898585799e-02,-5.207310631813895363e-02,-5.023628789252821553e-02,-4.884726957741101355e-02,-4.792956298620403705e-02,-4.747287868611883149e-02,-4.743205352746429626e-02,-4.773014465236604525e-02,-4.826777977638437023e-02,-4.893744094224056207e-02,-4.963848153313492328e-02,-5.028875288457196335e-02,-5.083064094107776071e-02,-5.123126665965310744e-02,-5.147867029247082948e-02,-5.157745204080454310e-02,-5.154638609833221002e-02,-5.141735059767351540e-02,-5.123296550085065793e-02,-5.104122585074857138e-02,-5.088786621124280485e-02,-5.080917562613373323e-02,-5.082787465128184301e-02,-5.095232469711622608e-02,-5.117670199123582758e-02,-5.147975622981871419e-02,-5.182319858281296543e-02,-5.215387890818087152e-02,-5.241232703481722710e-02,-5.254522033354005334e-02,-5.251636799271808265e-02,-5.231249117897904255e-02,-5.194386880342227730e-02,-5.144218619241491819e-02,-5.085761202005193576e-02,-5.025530640475608241e-02,-4.971001992348757920e-02,-4.929783138829076788e-02,-4.908617208656418374e-02,-4.912486359807823055e-02,-4.944058019269564896e-02,-5.003553826246567166e-02,-5.088948962032307372e-02,-5.196326824943078848e-02,-5.320245490397668836e-02,-5.454052772779569708e-02,-5.590165466982089520e-02,-5.720382765201514202e-02,-5.836305702432684900e-02,-5.929898500795671712e-02,-5.994194385171257994e-02,-6.024102344052770924e-02,-6.017176003509004667e-02,-5.974103738277301845e-02,-5.898687037072880557e-02,-5.797269965639350459e-02,-5.677869823109391728e-02,-5.549365477444685030e-02,-5.420889643571406152e-02,-5.301302020317393005e-02,-5.198584524251031319e-02,-5.119141932752501595e-02,-5.067149582572454125e-02,-5.044170490477955376e-02,-5.049146653869325541e-02,-5.078627825747017432e-02,-5.127040781429029193e-02,-5.186982646437739847e-02,-5.249678624605993993e-02,-5.305717157852058580e-02,-5.346045846039623739e-02,-5.363109658382120282e-02,-5.351983786728334996e-02,-5.311347052934792257e-02,-5.244106091813126314e-02,-5.157456044424665875e-02,-5.062224805500475933e-02,-4.971489333965071339e-02,-4.898608613035889542e-02,-4.854970531753435153e-02,-4.847911977084008034e-02,-4.879344652066052584e-02,-4.945467764674843503e-02,-5.037631159744575260e-02,-5.144087975567696730e-02,-5.252110051295502680e-02,-5.349826153886451385e-02,-5.427340955905622655e-02,-5.477140657473814761e-02,-5.494131320989149858e-02,-5.475626464785210423e-02,-5.421357093776068420e-02,-5.333434865675734660e-02,-5.216228928788271130e-02,-5.076192037708841809e-02,-4.921669644837597946e-02,-4.762602871103042285e-02,-4.609914782479125617e-02,-4.474436522503785069e-02,-4.365470149038601366e-02,-4.289330678823944504e-02,-4.248327689638328741e-02,-4.240525585939883269e-02,-4.260257985488927895e-02,-4.299030250044798968e-02,-4.346458249778702154e-02,-4.391238360708467348e-02,-4.422392644854913901e-02,-4.430857999455534851e-02,-4.411086592557526831e-02,-4.362123163740848353e-02,-4.287754931983987772e-02,-4.195629328957634768e-02,-4.095571175450218177e-02,-3.997648172847986792e-02,-3.910665925285407990e-02,-3.841539640595800081e-02,-3.795492030495754149e-02,-3.776606566188594333e-02,-3.788163893409984828e-02,-3.832422430091285415e-02,-3.909924609969814280e-02,-4.018733688050195318e-02,-4.154009566161929318e-02,-4.308110539920131932e-02,-4.471209818651189494e-02,-4.632337877708834345e-02,-4.780731046335847528e-02,-4.907283616880334792e-02,-5.005780382115268545e-02,-5.073528569336020755e-02,-5.111115365449166864e-02,-5.121380409601655748e-02,-5.108134971771537136e-02,-5.075224475287391790e-02,-5.026134771273729068e-02,-4.963962977580337749e-02,-4.891545954239136934e-02,-4.811682532466747542e-02,-4.727428127425904042e-02,-4.642394538889327987e-02,-4.560971155790408821e-02,-4.488392319569314837e-02,-4.430589647135935172e-02,-4.393809004245960437e-02,-4.384008047443935935e-02,-4.406067258228374417e-02,-4.462885312720821923e-02,-4.554463341420543487e-02,-4.677079656753637543e-02,-4.822698877294350622e-02,-4.978889406956021890e-02,-5.129595011852397524e-02,-5.256975305455072883e-02,-5.344206101583011403e-02,-5.378683528786504242e-02,-5.354702330639646290e-02,-5.274726782951001669e-02,-5.148914548425033433e-02,-4.993182940626040428e-02,-4.826421038186411161e-02,-4.667455094509102148e-02,-4.532285162280061397e-02,-4.432038612481625089e-02,-4.371971688739471201e-02,-4.351579034731407197e-02,-4.365513690923251977e-02,-4.404857233836102087e-02,-4.458435993284989157e-02,-4.514144469998025710e-02,-4.560336803273916384e-02,-4.587223753551124966e-02,-4.588037536313393366e-02,-4.559697417090217281e-02,-4.502856720621455089e-02,-4.421407827216230352e-02,-4.321631906079900776e-02,-4.211185571566251895e-02,-4.098072109610608610e-02,-3.989708501215615682e-02,-3.892212763937972358e-02,-3.810045265773237544e-02,-3.746021915424456450e-02,-3.701518497869572127e-02,-3.676626455721541259e-02,-3.670184659677896283e-02,-3.679811957079977269e-02,-3.702097139870496462e-02,-3.732961345941113174e-02,-3.768061093976569909e-02,-3.803106271994599608e-02,-3.834087208125240565e-02,-3.857483027279835774e-02,-3.870518542958897162e-02,-3.871506395580941173e-02,-3.860251990638484398e-02,-3.838385396390126686e-02,-3.809409779704741456e-02,-3.778344483646205176e-02,-3.751032628927181145e-02,-3.733298139382045661e-02,-3.730129119132882809e-02,-3.745018159940401159e-02,-3.779529456353306754e-02,-3.833076827082532168e-02,-3.902874204129768571e-02,-3.984113496226168727e-02,-4.070476337255703181e-02,-4.154952066719572179e-02,-4.230751530816922318e-02,-4.292080418027941630e-02,-4.334647108958178396e-02,-4.355900203872708348e-02,-4.355073286371201335e-02,-4.333151683846033636e-02,-4.292836633277073016e-02,-4.238460800290701908e-02,-4.175702179790036217e-02,-4.110986131198338112e-02,-4.050643242399144112e-02,-4.000050229584069250e-02,-3.963023043724765021e-02,-3.941639833187336739e-02,-3.936441751405377748e-02,-3.946686228804594659e-02,-3.970291067767529880e-02,-4.003481815765654733e-02,-4.040593481578450691e-02,-4.074445954712296869e-02,-4.097271512648016645e-02,-4.101865655830936458e-02,-4.082666304749936470e-02,-4.036597767714479590e-02,-3.963597573449256783e-02,-3.866855876042244594e-02,-3.752900087070400875e-02,-3.631573336942531260e-02,-3.515734554666500450e-02,-3.420432411621983360e-02,-3.361482428863511729e-02,-3.353630983677106242e-02,-3.408610379548720343e-02,-3.533336703127304412e-02,-3.728446100914747235e-02,-3.987444723915367639e-02,-4.296831160403666305e-02,-4.637394117773853408e-02,-4.986474610765243010e-02,-5.320622294039021455e-02,-5.618072293862299421e-02,-5.860709833346155334e-02,-6.035388500825436542e-02,-6.134592353097335221e-02,-6.156543120344116354e-02,-6.104907694729586054e-02,-5.988243930971692136e-02,-5.819259139317548013e-02,-5.613865717246219883e-02,-5.389968801863975756e-02,-5.165972140322530604e-02,-4.959138677751799562e-02,-4.784109330108509556e-02,-4.651889759947248210e-02,-4.569381002804567826e-02,-4.539277407290191052e-02,-4.560160593270980167e-02,-4.626795662566660083e-02,-4.730678674475562867e-02,-4.860787667152022956e-02,-5.004507983167517243e-02,-5.148805803792362579e-02,-5.281637771346633925e-02,-5.393333039189213834e-02,-5.477578576199258753e-02,-5.531801609297286315e-02,-5.556972332430287764e-02,-5.556943471398678724e-02,-5.537474106153235376e-02,-5.505197234587981547e-02,-5.466861062751277034e-02,-5.428989739414118859e-02,-5.397777725865909870e-02,-5.378891086493824136e-02,-5.376998205999656416e-02,-5.395061886894443604e-02,-5.433537393050558856e-02,-5.489704799380529937e-02,-5.557425721185937223e-02,-5.627551260475072148e-02,-5.689012269056715337e-02,-5.730368110420656913e-02,-5.741390166325298361e-02,-5.714283266962637275e-02,-5.644417873376220834e-02,-5.530701420780758520e-02,-5.375735773372389281e-02,-5.185760936176501273e-02,-4.970290144900238460e-02,-4.741383785138515716e-02,-4.512607641900647643e-02,-4.297798346549235038e-02,-4.109804702320130065e-02,-3.959364363411728427e-02,-3.854192850330338121e-02,-3.798258448876812993e-02,-3.791203746046149098e-02,-3.828029170836205058e-02,-3.899346113979276079e-02,-3.992454303834149648e-02,-4.093149638292721548e-02,-4.187814053643355849e-02,-4.265241957854806060e-02,-4.317823536704524373e-02,-4.341991473284135400e-02,-4.338077453171294146e-02,-4.309792081980544365e-02,-4.263457376382569913e-02,-4.207040182642539372e-02,-4.149051063394423172e-02,-4.097427746669179971e-02,-4.058541323038088872e-02,-4.036454083934373771e-02,-4.032532432531631128e-02,-4.045450261160528360e-02,-4.071517159873368902e-02,-4.105209530852366173e-02,-4.139830745309925480e-02,-4.168311179751767875e-02,-4.184143049793052210e-02,-4.182331951612774934e-02,-4.160168720495930478e-02,-4.117620483575568785e-02,-4.057181006779263938e-02,-3.983158278795136120e-02,-3.900630180023418464e-02,-3.814505754766654710e-02,-3.729059452884741360e-02,-3.647942127026275461e-02,-3.574327414657395979e-02,-3.510858976779655805e-02,-3.459377826425795444e-02,-3.420659767828661268e-02,-3.394345562071533068e-02,-3.379042152164210555e-02,-3.372453701522380720e-02,-3.371430645907928098e-02,-3.371962951316754414e-02,-3.369305447316107288e-02,-3.358452263588689729e-02,-3.334996676558722728e-02,-3.296160006540604925e-02,-3.241673537356981605e-02,-3.174316612151912437e-02,-3.100076156918575229e-02,-3.027913506270626942e-02,-2.969058776564299090e-02,-2.935772825850847811e-02,-2.939667498905699713e-02,-2.989852613763235162e-02,-3.091241591681483797e-02,-3.243282297211690784e-02,-3.439352172839735960e-02,-3.667127437236711307e-02,-3.910138507345015113e-02,-4.150263327538903507e-02,-4.370406475289258241e-02,-4.556550659473596748e-02,-4.698793476941544311e-02,-4.791513268808519910e-02,-4.833065628525561735e-02,-4.825314479014020108e-02,-4.773062315284712365e-02,-4.683331799832216036e-02,-4.564520539907013924e-02,-4.425562315193713042e-02,-4.275254204030905225e-02,-4.121822182351488756e-02,-3.972673951635827261e-02,-3.834242814185936932e-02,-3.711867628060359914e-02,-3.609697139826705675e-02,-3.530614040158969874e-02,-3.476163895941012522e-02,-3.446466411713750011e-02,-3.440097182907257689e-02,-3.453980377213740349e-02,-3.483420486112479009e-02,-3.522452673840731352e-02,-3.564605808537174569e-02,-3.603938774511009774e-02,-3.635987698418279707e-02,-3.658232904047036688e-02,-3.669882620453017441e-02,-3.671094022178696126e-02,-3.662073233159058444e-02,-3.642583727119875353e-02,-3.612143481170536352e-02,-3.570803050486651836e-02,-3.520110787774750200e-02,-3.463771964876168064e-02,-3.407629443220837329e-02,-3.358920446649836522e-02,-3.325091698017611230e-02,-3.312524224499593245e-02,-3.325376160687030375e-02,-3.364676243145409834e-02,-3.427866884109889017e-02,-3.509024726211653483e-02,-3.599832305601215199e-02,-3.691070480591403941e-02,-3.774142693864852849e-02,-3.842148261441758611e-02,-3.890316349741585605e-02,-3.915965029017018373e-02,-3.918315653898368084e-02,-3.898413160539639100e-02,-3.859154269111074453e-02,-3.805202898630256209e-02,-3.742607834222044794e-02,-3.678166493853742003e-02,-3.618685895999639718e-02,-3.570235833014415855e-02,-3.537492745953721429e-02,-3.523327692363929092e-02,-3.528716001181307627e-02,-3.552894682776094187e-02,-3.593646194273868166e-02,-3.647620867721950572e-02,-3.710613559074127377e-02,-3.777716387592645192e-02,-3.843368235235433000e-02,-3.901473630524915359e-02,-3.945809745052918788e-02,-3.970784618105650116e-02,-3.972360636751623431e-02,-3.948813777145958326e-02,-3.901051047998545240e-02,-3.832418426533255179e-02,-3.748158219438771366e-02,-3.654723800049037435e-02,-3.559035084525045273e-02,-3.467690993809439265e-02,-3.386217529650874247e-02,-3.318463152915971520e-02,-3.266207421442678810e-02,-3.229028347746627087e-02,-3.204496649540867353e-02,-3.188739984693546997e-02,-3.177310776047313767e-02,-3.166166852238536805e-02,-3.152533899296046382e-02,-3.135492095025908116e-02,-3.116235983828257589e-02,-3.098010920994791889e-02,-3.085742143627060938e-02,-3.085372145819717180e-02,-3.102905088405720491e-02,-3.143194733769569260e-02,-3.208690039809774380e-02,-3.298539006880068375e-02,-3.408401683821591505e-02,-3.531032687090711331e-02,-3.657390609460547254e-02,-3.777860777275774545e-02,-3.883136069677512597e-02,-3.964444460115224694e-02,-4.013211232121170063e-02,-4.020653220570841180e-02,-3.977778700617814328e-02,-3.875835207866954596e-02,-3.706978393093283281e-02,-3.465070200170811132e-02,-3.146649946129648212e-02,-2.751998353438503409e-02,-2.286056668357195135e-02,-1.758930120692558594e-02,-1.185729514724182497e-02,-5.855995935600821767e-03,1.997981470690206448e-04,6.092565858260835972e-03,1.162201021458532033e-02,1.662202619024830824e-02,2.097438021541033620e-02,2.461854985507300544e-02,2.755593768573664365e-02,2.984637580328273337e-02,3.159597466131704169e-02,3.293790726901783122e-02,3.401077882033490957e-02,3.494069583228202880e-02,3.583161542904469282e-02,3.676491716356784789e-02,3.780557204210857614e-02,3.901031415740931207e-02,4.043314847651328231e-02,4.212503571213094961e-02,4.412722540677015137e-02,4.646081588080143432e-02,4.911739488473634840e-02,5.205528800150591856e-02,5.520269218540829748e-02,5.846534780881047777e-02,6.173567975920156436e-02,6.490253975511149631e-02,6.786238977323695576e-02,7.053158253386497545e-02,7.285686058879295435e-02,7.482048852188458166e-02,7.643847314990773190e-02,7.775324947286628430e-02,7.882395620786641910e-02,7.971720293390184564e-02,8.049940739109796850e-02,8.123006831516413340e-02,8.195531347857773485e-02,8.270210879127226633e-02,8.347429106821054046e-02,8.425183266818549177e-02,8.499444971335792798e-02,8.564986839782506856e-02,8.616612215136673636e-02,8.650623726056259899e-02,8.666261780587340702e-02,8.666774908904462116e-02,8.659792103293986743e-02,8.656774722677530731e-02,8.671499943571246705e-02,8.717719692340998583e-02,8.806354051041491438e-02,8.942788459961481529e-02,9.124904053878910015e-02,9.342282916549043970e-02,9.576728599576921075e-02,9.804029488769619438e-02,9.996766489239329589e-02,1.012782176608227058e-01,1.017408742259162530e-01,1.011976051171081248e-01,9.958613778184191578e-02,9.694815141206941655e-02,9.342158135632136484e-02,8.921845736129914439e-02,8.459246854533934712e-02,7.980275861978219920e-02,7.508099872855228396e-02,7.060733634106573786e-02,6.649791244272471036e-02,6.280302997666216414e-02,5.951258008754414797e-02,5.656543493371329195e-02,5.386123286470853588e-02,5.127426684809242158e-02,4.866916929197323549e-02,4.591719784147106631e-02,4.291091430442811605e-02,3.957480055314059608e-02,3.587062747955004766e-02,3.179830502551560245e-02,2.739337048556138993e-02,2.272124105737683558e-02,1.786836216908047406e-02,1.293195440645959933e-02,8.010721599086133293e-03,3.197666031485650942e-03,-1.425002857497299812e-03,-5.788807391613495952e-03,-9.839498043648173958e-03,-1.353528359057943817e-02,-1.684360960253727946e-02,-1.973797710483424575e-02,-2.219715006774122118e-02,-2.420874488773121572e-02,-2.577661221026145491e-02,-2.692843832923188380e-02,-2.771903623204137468e-02,-2.822620549171863877e-02,-2.853909957883273701e-02,-2.874303153184065013e-02,-2.890724410155577975e-02,-2.908042931223292493e-02,-2.929395315058477833e-02,-2.956931851349110102e-02,-2.992574043292007061e-02,-3.038407249813717889e-02,-3.096470832729986133e-02,-3.168037987614410328e-02,-3.252814471145738795e-02,-3.348542283185695911e-02,-3.451267677787223792e-02,-3.556238062416660489e-02,-3.659129926306390473e-02,-3.757122580459026223e-02,-3.849441982186398159e-02,-3.937433132982650491e-02,-4.024519712137807070e-02,-4.116281631299219257e-02,-4.220580897771514933e-02,-4.347467582835335548e-02,-4.508538188403497793e-02,-4.715545936311112130e-02,-4.978407125193931582e-02,-5.303130488580510421e-02,-5.690316514875588816e-02,-6.134607451628679847e-02,-6.625046064629390441e-02,-7.146071278817646422e-02,-7.678906939000071374e-02,-8.203147202311836250e-02,-8.698213343192161273e-02,-9.144156746971764116e-02,-9.521274657940913266e-02,-9.808283284730245910e-02,-9.979271420101283596e-02,-1.000022487046163117e-01,-9.826333419008569103e-02,-9.401235461840240504e-02,-8.658796215357605908e-02,-7.527330158141766481e-02,-5.935652175121469698e-02,-3.819990969383683932e-02,-1.130735059120422173e-02,2.161678887061309687e-02,6.061995541589824260e-02,1.054664121168457508e-01,1.556177395208928060e-01,2.102315834453339360e-01,2.681795214081540424e-01,3.280834610139835572e-01,3.883696631785844566e-01,4.473388040205650840e-01,5.032491192030599247e-01,5.544094362884726124e-01,5.992798042319723573e-01,6.365756570651047719e-01,6.653651493857687393e-01,6.851435717326960217e-01,6.958699752333789013e-01,0.000000000000000000e+00,0.000000000000000000e+00,0.000000000000000000e+00,0.000000000000000000e+00,0.000000000000000000e+00,0.000000000000000000e+00,0.000000000000000000e+00,0.000000000000000000e+00,0.000000000000000000e+00,0.000000000000000000e+00,0.000000000000000000e+00,0.000000000000000000e+00,0.000000000000000000e+00,0.000000000000000000e+00,0.000000000000000000e+00,0.000000000000000000e+00,0.000000000000000000e+00,0.000000000000000000e+00,0.000000000000000000e+00,0.000000000000000000e+00,0.000000000000000000e+00,0.000000000000000000e+00,0.000000000000000000e+00,0.000000000000000000e+00,0.000000000000000000e+00,0.000000000000000000e+00,0.000000000000000000e+00,0.000000000000000000e+00,0.000000000000000000e+00,0.000000000000000000e+00,0.000000000000000000e+00,0.000000000000000000e+00,0.000000000000000000e+00,0.000000000000000000e+00,0.000000000000000000e+00,0.000000000000000000e+00,0.000000000000000000e+00,0.000000000000000000e+00,0.000000000000000000e+00,0.000000000000000000e+00,0.000000000000000000e+00,0.000000000000000000e+00,0.000000000000000000e+00,0.000000000000000000e+00,0.000000000000000000e+00,0.000000000000000000e+00,0.000000000000000000e+00,0.000000000000000000e+00,0.000000000000000000e+00,0.000000000000000000e+00,0.000000000000000000e+00,0.000000000000000000e+00,0.000000000000000000e+00,0.000000000000000000e+00,0.000000000000000000e+00,0.000000000000000000e+00,0.000000000000000000e+00,0.000000000000000000e+00,0.000000000000000000e+00,0.000000000000000000e+00,0.000000000000000000e+00,0.000000000000000000e+00,0.000000000000000000e+00,0.000000000000000000e+00,0.000000000000000000e+00,0.000000000000000000e+00,0.000000000000000000e+00,0.000000000000000000e+00,0.000000000000000000e+00,0.000000000000000000e+00,0.000000000000000000e+00,0.000000000000000000e+00,0.000000000000000000e+00,0.000000000000000000e+00,0.000000000000000000e+00,0.000000000000000000e+00,0.000000000000000000e+00,0.000000000000000000e+00,0.000000000000000000e+00,0.000000000000000000e+00,0.000000000000000000e+00,0.000000000000000000e+00,0.000000000000000000e+00,0.000000000000000000e+00,0.000000000000000000e+00,0.000000000000000000e+00,0.000000000000000000e+00,0.000000000000000000e+00,0.000000000000000000e+00,0.000000000000000000e+00,0.000000000000000000e+00,0.000000000000000000e+00,0.000000000000000000e+00,0.000000000000000000e+00,0.000000000000000000e+00,0.000000000000000000e+00,0.000000000000000000e+00,0.000000000000000000e+00,0.000000000000000000e+00,0.000000000000000000e+00,0.000000000000000000e+00,0.000000000000000000e+00,0.000000000000000000e+00,0.000000000000000000e+00,0.000000000000000000e+00,0.000000000000000000e+00,0.000000000000000000e+00,0.000000000000000000e+00,0.000000000000000000e+00,0.000000000000000000e+00,0.000000000000000000e+00,0.000000000000000000e+00,0.000000000000000000e+00,0.000000000000000000e+00,0.000000000000000000e+00,0.000000000000000000e+00,0.000000000000000000e+00,0.000000000000000000e+00,0.000000000000000000e+00,0.000000000000000000e+00,0.000000000000000000e+00,0.000000000000000000e+00,0.000000000000000000e+00,0.000000000000000000e+00,0.000000000000000000e+00,0.000000000000000000e+00,0.000000000000000000e+00,0.000000000000000000e+00,0.000000000000000000e+00,0.000000000000000000e+00,0.000000000000000000e+00,0.000000000000000000e+00,0.000000000000000000e+00,0.000000000000000000e+00,0.000000000000000000e+00
6.979589584489699350e-01,6.922289002122002932e-01,6.798124297145650141e-01,6.620376707491484325e-01,6.402933665274778141e-01,6.158950976473576144e-01,5.899689594021104710e-01,5.633653259829454196e-01,5.366134361081235093e-01,5.099248966597779154e-01,4.832456406295611573e-01,4.563443416252109253e-01,4.289179278049398691e-01,4.006942677991027213e-01,3.715163478938302566e-01,3.413981849527783496e-01,3.105485830686695037e-01,2.793639273889265140e-01,2.483939562028151249e-01,2.182848613076707189e-01,1.897055010291604227e-01,1.632670292830951941e-01,1.394508056711799837e-01,1.185589683880864387e-01,1.006952376378013603e-01,8.577463980549815403e-02,7.355498588575026808e-02,6.368128121320137947e-02,5.573482141983632926e-02,4.927955691528204674e-02,4.389936542613410292e-02,3.922243439212424326e-02,3.493306629783481804e-02,3.077501047740471493e-02,2.655176043903867758e-02,2.212742617858631453e-02,1.742812331448119825e-02,1.244092513824368064e-02,7.207416135334100173e-03,1.811378020268561775e-03,-3.637523301128906678e-03,-9.021397823306402664e-03,-1.423022915475842878e-02,-1.917346493029729523e-02,-2.378526071278364712e-02,-2.802344153067419866e-02,-3.186375399170467138e-02,-3.529181697026705089e-02,-3.829559211995472306e-02,-4.086105146602356936e-02,-4.297265746854578988e-02,-4.461836121383835202e-02,-4.579675489072133898e-02,-4.652283848716463194e-02,-4.682956186134117765e-02,-4.676489450640266415e-02,-4.638708763718022571e-02,-4.576157386641035302e-02,-4.496056042980361295e-02,-4.406304230778809033e-02,-4.315193420657435081e-02,-4.230699830423490654e-02,-4.159546146208683431e-02,-4.106406247259558606e-02,-4.073521708550333770e-02,-4.060756052823664974e-02,-4.065979363563162335e-02,-4.085641068264742742e-02,-4.115352634282347377e-02,-4.150323909294348357e-02,-4.185604367831084749e-02,-4.216174820272677176e-02,-4.236981729903255972e-02,-4.243028396865700103e-02,-4.229613884954094849e-02,-4.192753708792905376e-02,-4.129779161073366539e-02,-4.040065669570185730e-02,-3.925709340320946567e-02,-3.791826751514493915e-02,-3.646204494698750825e-02,-3.498308832663461765e-02,-3.357935713743359640e-02,-3.233838075467735523e-02,-3.132590596426319124e-02,-3.057879897882244402e-02,-3.010306841037684727e-02,-2.987611282652749556e-02,-2.985123325437565728e-02,-2.996332172338613681e-02,-3.013593365339768682e-02,-3.028974449461359006e-02,-3.035119870638475562e-02,-3.025954545961534806e-02,-2.997110431295564592e-02,-2.946118949288747957e-02,-2.872520412135418436e-02,-2.777974203766941930e-02,-2.666288336229131334e-02,-2.543193225817484693e-02,-2.415745566852459808e-02,-2.291434344215096883e-02,-2.177212454450038262e-02,-2.078648766645276383e-02,-1.999274874994984297e-02,-1.940157070118130392e-02,-1.899736215285175236e-02,-1.873945669865711289e-02,-1.856565656735481226e-02,-1.839775988031438353e-02,-1.814906304318229802e-02,-1.773378326211655365e-02,-1.707765179552030860e-02,-1.612793255869686068e-02,-1.486052097293180316e-02,-1.328239770909383881e-02,-1.142952893384839748e-02,-9.362055358041075290e-03,-7.158947038484077610e-03,-4.913206089858188422e-03,-2.727510765818094967e-03,-7.096570435418674168e-04,1.033264720026582945e-03,2.402945051309356584e-03,3.319572046593769442e-03,3.730718158975650407e-03,3.617115843058160782e-03,2.995000743782339804e-03,1.916023206617317644e-03,4.651651122699383234e-04,-1.244001267480182539e-03,-3.077236713164840237e-03,-4.890303267965278797e-03,-6.541427340301677294e-03,-7.904322366971344022e-03,-8.879846931697661996e-03,-9.403964438896534467e-03,-9.450624802802775129e-03,-9.030049685442957663e-03,-8.183848515604717419e-03,-6.977863769628384408e-03,-5.493190583685018079e-03,-3.816493059600910807e-03,-2.031667162677876833e-03,-2.146165920112811363e-04,1.569016704242392167e-03,3.265292193989466785e-03,4.834421306563681763e-03,6.253805462920075837e-03,7.519491221137645197e-03,8.643958046057435840e-03,9.649694209337530276e-03,1.056017778296407597e-02,1.139139327888552544e-02,1.214683979999220571e-02,1.281728183078486953e-02,1.338419960808931268e-02,1.382423462246973322e-02,1.411216679668286442e-02,1.422233130946345264e-02,1.413087592319999496e-02,1.382099111747197781e-02,1.329034325228933833e-02,1.255802657400855241e-02,1.166926130214202342e-02,1.069728631666820584e-02,9.741425945623698873e-03,8.920062283237464168e-03,8.358972506306360656e-03,8.177416868833923061e-03,8.474761396134235583e-03,9.320228329758550173e-03,1.074785706401254655e-02,1.275688297715854222e-02,1.531552639286309567e-02,1.836555714590636101e-02,2.182571209149545416e-02,2.559321401357623690e-02,2.954437909103964019e-02,3.353693463621038734e-02,3.741650573110531786e-02,4.102758759992802817e-02,4.422703884421966963e-02,4.689731001017635736e-02,4.895740884799180265e-02,5.037106965730068359e-02,5.115213513232163417e-02,5.136620344402419158e-02,5.112704298643073325e-02,5.058748706965373459e-02,4.992575507657647654e-02,4.932813338234585260e-02,4.896942274188971489e-02,4.899443601153601752e-02,4.950468603513960564e-02,5.055249338911255857e-02,5.214193930013195921e-02,5.423473891761339954e-02,5.675941023241536099e-02,5.962283974251249286e-02,6.272308189515736487e-02,6.596123657159863596e-02,6.925035460391119890e-02,7.252065692953565956e-02,7.572124120817028126e-02,7.881843390647828851e-02,8.179112384213817200e-02,8.462461616320189617e-02,8.730581591437190647e-02,8.982187196025645526e-02,9.216206331047646638e-02,9.432118793811536395e-02,9.630278754642677963e-02,9.812101782104530601e-02,9.980029808739072916e-02,1.013724162306984256e-01,1.028716112895045193e-01,1.043286422270552072e-01,1.057647422300982826e-01,1.071865094816110420e-01,1.085832528295721938e-01,1.099279397438559097e-01,1.111816669490120202e-01,1.123005904920568315e-01,1.132436751274824988e-01,1.139791792937892012e-01,1.144880962455536721e-01,1.147641656154560208e-01,1.148115640704938101e-01,1.146418439944401485e-01,1.142710117430285749e-01,1.137167038899663807e-01,1.129953199843811845e-01,1.121197827918204576e-01,1.110990268487804244e-01,1.099393357015978068e-01,1.086461667190532498e-01,1.072248111665410203e-01,1.056794847384489033e-01,1.040121446782927145e-01,1.022228544620779334e-01,1.003121117143829649e-01,9.828369657080561483e-02,9.614622663863935104e-02,9.391257548692519275e-02,9.159752950050426001e-02,8.921512554688267038e-02,8.677754330887157974e-02,8.429654485289932164e-02,8.178673321398764740e-02,7.926888820664979018e-02,7.677206559979328493e-02,7.433400584976257441e-02,7.199946585322630765e-02,6.981559809605947242e-02,6.782387630965759640e-02,6.605000558413975931e-02,6.449507609207005832e-02,6.313074544576902092e-02,6.189921111214927163e-02,6.071743151513724762e-02,5.948482658121265199e-02,5.809358383313070057e-02,5.644015924177375743e-02,5.443578161313177011e-02,5.201398358667106564e-02,4.913499480717669482e-02,4.578829248841246452e-02,4.199378433014191309e-02,3.780035628889548416e-02,3.328052544596653284e-02,2.852164895704345851e-02,2.361527473644609368e-02,1.864616799925633561e-02,1.368267430725360161e-02,8.770431906080376067e-03,3.930583539549468985e-03,-8.382843616672982275e-04,-5.555964791077684303e-03,-1.025429921529535590e-02,-1.496776899671861324e-02,-1.972177818496126042e-02,-2.452199191108550211e-02,-2.934843810122126154e-02,-3.415594678127586992e-02,-3.887996648327340932e-02,-4.344548918237510493e-02,-4.777678056690465996e-02,-5.180599632537875865e-02,-5.547930351506775992e-02,-5.876016329313427794e-02,-6.163043999738591905e-02,-6.408985139594615410e-02,-6.615334544043448284e-02,-6.784632848928326410e-02,-6.919973027697609580e-02,-7.024778504045588179e-02,-7.102919576330476992e-02,-7.158951414889813680e-02,-7.198223778578029253e-02,-7.226812686130568153e-02,-7.251414212711890239e-02,-7.279313509009699423e-02,-7.318343423290939176e-02,-7.376622041944959352e-02,-7.461938246019544918e-02,-7.580841661310896984e-02,-7.737619318673293056e-02,-7.933353466080150795e-02,-8.165265543187770481e-02,-8.426610155346875297e-02,-8.707309350000655424e-02,-8.995207780341460402e-02,-9.277538103922217116e-02,-9.542199465256341606e-02,-9.778693264541998831e-02,-9.978749856420249253e-02,-1.013670380708099200e-01,-1.024963970979893974e-01,-1.031732284171168607e-01,-1.034191734766632120e-01,-1.032748391762113166e-01,-1.027929128352616100e-01,-1.020304719651504571e-01,-1.010420117797889011e-01,-9.987467364339712439e-02,-9.856650539540347256e-02,-9.714766407256129888e-02,-9.564369173823750181e-02,-9.407939840057352732e-02,-9.248183352968938897e-02,-9.088164246250284017e-02,-8.931297818202023342e-02,-8.781208856124664286e-02,-8.641416488011768871e-02,-8.514825712518696299e-02,-8.403119067272750431e-02,-8.306241662413542393e-02,-8.222186930453190268e-02,-8.147212550131072151e-02,-8.076468857337963658e-02,-8.004884393789928054e-02,-7.928097996145809512e-02,-7.843247502740344212e-02,-7.749501409541958985e-02,-7.648314655180275812e-02,-7.543405114960648195e-02,-7.440364196714847889e-02,-7.345787806325880520e-02,-7.265981539395767463e-02,-7.205566903797869238e-02,-7.166447031775775856e-02,-7.147450416811115814e-02,-7.144672013687934642e-02,-7.152260017169276285e-02,-7.163270959875610300e-02,-7.170320001728422432e-02,-7.166070910456716347e-02,-7.143875429822856005e-02,-7.098764689939093819e-02,-7.028587329597663080e-02,-6.934823572584325468e-02,-6.822694959861463904e-02,-6.700411286044739845e-02,-6.577608657688963079e-02,-6.463329261864574071e-02,-6.364148014835374623e-02,-6.282976751475193022e-02,-6.218741285785404915e-02,-6.166860212395173374e-02,-6.120342259216737801e-02,-6.071220679010489590e-02,-6.011970356256323561e-02,-5.936616473043480890e-02,-5.841382027769313062e-02,-5.724848518791470636e-02,-5.587753515025165041e-02,-5.432671037813770892e-02,-5.263770702687226716e-02,-5.086627960344600186e-02,-4.907860361375339375e-02,-4.734429354053674294e-02,-4.572760444051952172e-02,-4.428045133975482689e-02,-4.303925412581485754e-02,-4.202442273034984188e-02,-4.124042276932928658e-02,-4.067564916696486677e-02,-4.030206007454159578e-02,-4.007465127697371760e-02,-3.993179888901877972e-02,-3.979837566690957312e-02,-3.959304877295857089e-02,-3.923972136379641484e-02,-3.868124960054035444e-02,-3.789207089209108148e-02,-3.688663672143410732e-02,-3.572231761570662106e-02,-3.449661000757874713e-02,-3.333845099803091350e-02,-3.239403377428710235e-02,-3.180930107226932063e-02,-3.171205028974616313e-02,-3.219537852044095094e-02,-3.330367826579089946e-02,-3.502389530299730713e-02,-3.728543303166789724e-02,-3.996953270932840363e-02,-4.292500595613654713e-02,-4.598557607496239763e-02,-4.898585745436685041e-02,-5.177547731186376428e-02,-5.423119286657181182e-02,-5.626544842842299415e-02,-5.782926281640975857e-02,-5.890894880766217589e-02,-5.951846397051002019e-02,-5.969035416841358271e-02,-5.946801888989594609e-02,-5.890062843870283449e-02,-5.804019629001649222e-02,-5.693964476604994329e-02,-5.565127626250600951e-02,-5.422530177249510613e-02,-5.270774560172188788e-02,-5.113722521404531068e-02,-4.954094310225239106e-02,-4.793073387582730271e-02,-4.629983237657529782e-02,-4.462115259380083909e-02,-4.284848550427388519e-02,-4.092172081682101531e-02,-3.877559366957608611e-02,-3.634986798710298367e-02,-3.359824216704609956e-02,-3.049395610833376125e-02,-2.703209861065790018e-02,-2.323039366840257136e-02,-1.912988117335367999e-02,-1.479526273101660142e-02,-1.031397769248472082e-02,-5.793289572595066925e-03,-1.354698111361065868e-03,2.874612973953800769e-03,6.772085778418067588e-03,1.022934651166193011e-02,1.315900983204195719e-02,1.549842684495655876e-02,1.721139592164707549e-02,1.828924437249441343e-02,1.875204628960927197e-02,1.864943004668239215e-02,1.805975134551645808e-02,1.708713024730195915e-02,1.585710521463154846e-02,1.451198500550700959e-02,1.320593421700651075e-02,1.209820122810364995e-02,1.134202743898512361e-02,1.106823064751464789e-02,1.136610775672284440e-02,1.226688537910822566e-02,1.373404751077541078e-02,1.566242215289393239e-02,1.788669100427554490e-02,2.019967224652430629e-02,2.237917303560143373e-02,2.421880262472786774e-02,2.555547078106724240e-02,2.628772886036874479e-02,2.638372641308451422e-02,2.588050731602195564e-02,2.487589381122793514e-02,2.351390110397818048e-02,2.196654841395052904e-02,2.041588987451455409e-02,1.903778516863838949e-02,1.798621903345566653e-02,1.737706463100334442e-02,1.727243123925374657e-02,1.766888042065930392e-02,1.849348194872521209e-02,1.961030958076899131e-02,2.083704775071743703e-02,2.196902683290880010e-02,2.280775406063853886e-02,2.319151542187667878e-02,2.302482085879768714e-02,2.230159297313841563e-02,2.111595171716616065e-02,1.965580333318740769e-02,1.817822500508598990e-02,1.697001551372906425e-02,1.629996657645910868e-02,1.637134734764882776e-02,1.728391578698315612e-02,1.901308012750302714e-02,2.140896206651212580e-02,2.421289769605851697e-02,2.708690879830565057e-02,2.965233039301088877e-02,3.153388162703848335e-02,3.240432306899399678e-02,3.202422998203625221e-02,3.027183277298335987e-02,2.715856315308378538e-02,2.282725965947630248e-02,1.753288445605301338e-02,1.160935839364435687e-02,5.428656303707871805e-03,-6.413822846793209350e-04,-6.275251837454197922e-03,-1.122031299378423511e-02,-1.531750267552451153e-02,-1.851132627340741285e-02,-2.084903033990752330e-02,-2.246939355800840060e-02,-2.358254722482244423e-02,-2.444371398737359841e-02,-2.532469367243893668e-02,-2.648645046682876480e-02,-2.815505284132272662e-02,-3.050292734087856408e-02,-3.363751736793947622e-02,-3.759836202527652715e-02,-4.236131065830394532e-02,-4.784691647849836221e-02,-5.393033854133730959e-02,-6.045150889787526127e-02,-6.722525731546716288e-02,-7.405137726733816705e-02,-8.072492657727962928e-02,-8.704706895552163926e-02,-9.283605616232672164e-02,-9.793718538201544310e-02,-1.022306140842555167e-01,-1.056368721006218231e-01,-1.081208091352822281e-01,-1.096941266925623576e-01,-1.104148966566752127e-01,-1.103820804729451210e-01,-1.097251764567900301e-01,-1.085915616359035690e-01,-1.071345637905154885e-01,-1.055041948813930097e-01,-1.038410922249561330e-01,-1.022729130441313999e-01,-1.009117970762145461e-01,-9.985202976565579758e-02,-9.916756961562034345e-02,-9.890901365403845236e-02,-9.910019186943516689e-02,-9.973575540280853191e-02,-1.007805384306896812e-01,-1.021695095766530365e-01,-1.038072223367875468e-01,-1.055685096279022350e-01,-1.073043963849791421e-01,-1.088560754867993613e-01,-1.100756593062657551e-01,-1.108480207942590251e-01,-1.111067209722168408e-01,-1.108396491159379105e-01,-1.100842732845505739e-01,-1.089161216390811676e-01,-1.074362578270439544e-01,-1.057627628373593170e-01,-1.040274305215205669e-01,-1.023746867383283632e-01,-1.009585079806286922e-01,-9.993533381752235656e-02,-9.945376324982180272e-02,-9.964288681371334666e-02,-1.006009995641195254e-01,-1.023861667891802912e-01,-1.050099992601291748e-01,-1.084363893209864399e-01,-1.125869563024441550e-01,-1.173527420545493472e-01,-1.226081923667507456e-01,-1.282223541158118152e-01,-1.340647076135069171e-01,-1.400058030559320765e-01,-1.459129739397654335e-01,-1.516399611507796563e-01,-1.570088440312752687e-01,-1.617843107864739283e-01,-1.656436705322900105e-01,-1.681498851956877982e-01,-1.687371078643342681e-01,-1.667164712849266983e-01,-1.613046726807734477e-01,-1.516729791859169341e-01,-1.370113189505743068e-01,-1.165996574749422754e-01,-8.987778917413509483e-02,-5.650712311273230204e-02,-1.642186722331764187e-02,3.013157111403563793e-02,8.256920591528010833e-02,1.399613858230302488e-01,2.010452906800231643e-01,2.642609580570245420e-01,3.278128620714199637e-01,3.897565922358698365e-01,4.481067512881282133e-01,5.009598338235756732e-01,5.466247682911333783e-01,5.837516279066365943e-01,6.114447308989132690e-01,6.293424543437539098e-01,0.000000000000000000e+00,0.000000000000000000e+00,0.000000000000000000e+00,0.000000000000000000e+00,0.000000000000000000e+00,0.000000000000000000e+00,0.000000000000000000e+00,0.000000000000000000e+00,0.000000000000000000e+00,0.000000000000000000e+00,0.000000000000000000e+00,0.000000000000000000e+00,0.000000000000000000e+00,0.000000000000000000e+00,0.000000000000000000e+00,0.000000000000000000e+00,0.000000000000000000e+00,0.000000000000000000e+00,0.000000000000000000e+00,0.000000000000000000e+00,0.000000000000000000e+00,0.000000000000000000e+00,0.000000000000000000e+00,0.000000000000000000e+00,0.000000000000000000e+00,0.000000000000000000e+00,0.000000000000000000e+00,0.000000000000000000e+00,0.000000000000000000e+00,0.000000000000000000e+00,0.000000000000000000e+00,0.000000000000000000e+00,0.000000000000000000e+00,0.000000000000000000e+00,0.000000000000000000e+00,0.000000000000000000e+00,0.000000000000000000e+00,0.000000000000000000e+00,0.000000000000000000e+00,0.000000000000000000e+00,0.000000000000000000e+00,0.000000000000000000e+00,0.000000000000000000e+00,0.000000000000000000e+00,0.000000000000000000e+00,0.000000000000000000e+00,0.000000000000000000e+00,0.000000000000000000e+00,0.000000000000000000e+00,0.000000000000000000e+00,0.000000000000000000e+00,0.000000000000000000e+00,0.000000000000000000e+00,0.000000000000000000e+00,0.000000000000000000e+00,0.000000000000000000e+00,0.000000000000000000e+00,0.000000000000000000e+00,0.000000000000000000e+00,0.000000000000000000e+00,0.000000000000000000e+00,0.000000000000000000e+00,0.000000000000000000e+00,0.000000000000000000e+00,0.000000000000000000e+00,0.000000000000000000e+00,0.000000000000000000e+00,0.000000000000000000e+00,0.000000000000000000e+00,0.000000000000000000e+00,0.000000000000000000e+00,0.000000000000000000e+00,0.000000000000000000e+00,0.000000000000000000e+00,0.000000000000000000e+00,0.000000000000000000e+00,0.000000000000000000e+00,0.000000000000000000e+00,0.000000000000000000e+00,0.000000000000000000e+00,0.000000000000000000e+00,0.000000000000000000e+00,0.000000000000000000e+00,0.000000000000000000e+00,0.000000000000000000e+00,0.000000000000000000e+00,0.000000000000000000e+00,0.000000000000000000e+00,0.000000000000000000e+00,0.000000000000000000e+00,0.000000000000000000e+00,0.000000000000000000e+00,0.000000000000000000e+00,0.000000000000000000e+00,0.000000000000000000e+00,0.000000000000000000e+00,0.000000000000000000e+00,0.000000000000000000e+00,0.000000000000000000e+00,0.000000000000000000e+00,0.000000000000000000e+00,0.000000000000000000e+00,0.000000000000000000e+00,0.000000000000000000e+00,0.000000000000000000e+00,0.000000000000000000e+00,0.000000000000000000e+00,0.000000000000000000e+00,0.000000000000000000e+00,0.000000000000000000e+00,0.000000000000000000e+00,0.000000000000000000e+00,0.000000000000000000e+00,0.000000000000000000e+00,0.000000000000000000e+00,0.000000000000000000e+00,0.000000000000000000e+00,0.000000000000000000e+00,0.000000000000000000e+00,0.000000000000000000e+00,0.000000000000000000e+00,0.000000000000000000e+00,0.000000000000000000e+00,0.000000000000000000e+00,0.000000000000000000e+00,0.000000000000000000e+00,0.000000000000000000e+00,0.000000000000000000e+00,0.000000000000000000e+00,0.000000000000000000e+00,0.000000000000000000e+00,0.000000000000000000e+00,0.000000000000000000e+00,0.000000000000000000e+00,0.000000000000000000e+00,0.000000000000000000e+00,0.000000000000000000e+00,0.000000000000000000e+00,0.000000000000000000e+00,0.000000000000000000e+00,0.000000000000000000e+00,0.000000000000000000e+00,0.000000000000000000e+00,0.000000000000000000e+00,0.000000000000000000e+00,0.000000000000000000e+00,0.000000000000000000e+00,0.000000000000000000e+00,0.000000000000000000e+00,0.000000000000000000e+00,0.000000000000000000e+00,0.000000000000000000e+00,0.000000000000000000e+00,0.000000000000000000e+00,0.000000000000000000e+00,0.000000000000000000e+00,0.000000000000000000e+00,0.000000000000000000e+00,0.000000000000000000e+00,0.000000000000000000e+00,0.000000000000000000e+00,0.000000000000000000e+00,0.000000000000000000e+00,0.000000000000000000e+00,0.000000000000000000e+00,0.000000000000000000e+00,0.000000000000000000e+00,0.000000000000000000e+00,0.000000000000000000e+00,0.000000000000000000e+00,0.000000000000000000e+00,0.000000000000000000e+00,0.000000000000000000e+00,0.000000000000000000e+00,0.000000000000000000e+00,0.000000000000000000e+00,0.000000000000000000e+00,0.000000000000000000e+00,0.000000000000000000e+00,0.000000000000000000e+00,0.000000000000000000e+00,0.000000000000000000e+00,0.000000000000000000e+00,0.000000000000000000e+00,0.000000000000000000e+00,0.000000000000000000e+00,0.000000000000000000e+00,0.000000000000000000e+00,0.000000000000000000e+00,0.000000000000000000e+00,0.000000000000000000e+00,0.000000000000000000e+00,0.000000000000000000e+00,0.000000000000000000e+00,0.000000000000000000e+00,0.000000000000000000e+00,0.000000000000000000e+00,0.000000000000000000e+00,0.000000000000000000e+00,0.000000000000000000e+00,0.000000000000000000e+00,0.000000000000000000e+00,0.000000000000000000e+00,0.000000000000000000e+00,0.000000000000000000e+00,0.000000000000000000e+00,0.000000000000000000e+00,0.000000000000000000e+00,0.000000000000000000e+00,0.000000000000000000e+00,0.000000000000000000e+00,0.000000000000000000e+00,0.000000000000000000e+00,0.000000000000000000e+00,0.000000000000000000e+00,0.000000000000000000e+00,0.000000000000000000e+00,0.000000000000000000e+00,0.000000000000000000e+00,0.000000000000000000e+00,0.000000000000000000e+00,0.000000000000000000e+00,0.000000000000000000e+00,0.000000000000000000e+00,0.000000000000000000e+00,0.000000000000000000e+00,0.000000000000000000e+00,0.000000000000000000e+00,0.000000000000000000e+00,0.000000000000000000e+00,0.000000000000000000e+00,0.000000000000000000e+00,0.000000000000000000e+00,0.000000000000000000e+00,0.000000000000000000e+00,0.000000000000000000e+00,0.000000000000000000e+00,0.000000000000000000e+00,0.000000000000000000e+00,0.000000000000000000e+00,0.000000000000000000e+00,0.000000000000000000e+00,0.000000000000000000e+00,0.000000000000000000e+00,0.000000000000000000e+00,0.000000000000000000e+00,0.000000000000000000e+00,0.000000000000000000e+00,0.000000000000000000e+00,0.000000000000000000e+00,0.000000000000000000e+00,0.000000000000000000e+00,0.000000000000000000e+00,0.000000000000000000e+00,0.000000000000000000e+00,0.000000000000000000e+00,0.000000000000000000e+00,0.000000000000000000e+00,0.000000000000000000e+00,0.000000000000000000e+00,0.000000000000000000e+00,0.000000000000000000e+00,0.000000000000000000e+00,0.000000000000000000e+00,0.000000000000000000e+00,0.000000000000000000e+00,0.000000000000000000e+00,0.000000000000000000e+00,0.000000000000000000e+00,0.000000000000000000e+00,0.000000000000000000e+00,0.000000000000000000e+00,0.000000000000000000e+00,0.000000000000000000e+00,0.000000000000000000e+00,0.000000000000000000e+00,0.000000000000000000e+00,0.000000000000000000e+00,0.000000000000000000e+00,0.000000000000000000e+00,0.000000000000000000e+00,0.000000000000000000e+00,0.000000000000000000e+00,0.000000000000000000e+00,0.000000000000000000e+00,0.000000000000000000e+00,0.000000000000000000e+00,0.000000000000000000e+00,0.000000000000000000e+00,0.000000000000000000e+00,0.000000000000000000e+00,0.000000000000000000e+00,0.000000000000000000e+00,0.000000000000000000e+00,0.000000000000000000e+00,0.000000000000000000e+00,0.000000000000000000e+00,0.000000000000000000e+00,0.000000000000000000e+00,0.000000000000000000e+00,0.000000000000000000e+00,0.000000000000000000e+00,0.000000000000000000e+00,0.000000000000000000e+00,0.000000000000000000e+00,0.000000000000000000e+00,0.000000000000000000e+00,0.000000000000000000e+00,0.000000000000000000e+00,0.000000000000000000e+00,0.000000000000000000e+00,0.000000000000000000e+00,0.000000000000000000e+00,0.000000000000000000e+00,0.000000000000000000e+00,0.000000000000000000e+00,0.000000000000000000e+00,0.000000000000000000e+00,0.000000000000000000e+00,0.000000000000000000e+00,0.000000000000000000e+00,0.000000000000000000e+00,0.000000000000000000e+00,0.000000000000000000e+00,0.000000000000000000e+00,0.000000000000000000e+00,0.000000000000000000e+00,0.000000000000000000e+00,0.000000000000000000e+00,0.000000000000000000e+00,0.000000000000000000e+00,0.000000000000000000e+00,0.000000000000000000e+00,0.000000000000000000e+00,0.000000000000000000e+00,0.000000000000000000e+00,0.000000000000000000e+00,0.000000000000000000e+00,0.000000000000000000e+00,0.000000000000000000e+00,0.000000000000000000e+00,0.000000000000000000e+00,0.000000000000000000e+00,0.000000000000000000e+00,0.000000000000000000e+00,0.000000000000000000e+00,0.000000000000000000e+00,0.000000000000000000e+00,0.000000000000000000e+00,0.000000000000000000e+00,0.000000000000000000e+00,0.000000000000000000e+00,0.000000000000000000e+00,0.000000000000000000e+00,0.000000000000000000e+00,0.000000000000000000e+00,0.000000000000000000e+00,0.000000000000000000e+00,0.000000000000000000e+00,0.000000000000000000e+00,0.000000000000000000e+00,0.000000000000000000e+00,0.000000000000000000e+00,0.000000000000000000e+00,0.000000000000000000e+00,0.000000000000000000e+00,0.000000000000000000e+00,0.000000000000000000e+00,0.000000000000000000e+00,0.000000000000000000e+00,0.000000000000000000e+00,0.000000000000000000e+00,0.000000000000000000e+00,0.000000000000000000e+00,0.000000000000000000e+00,0.000000000000000000e+00,0.000000000000000000e+00,0.000000000000000000e+00,0.000000000000000000e+00,0.000000000000000000e+00,0.000000000000000000e+00,0.000000000000000000e+00,0.000000000000000000e+00,0.000000000000000000e+00,0.000000000000000000e+00,0.000000000000000000e+00,0.000000000000000000e+00,0.000000000000000000e+00,0.000000000000000000e+00,0.000000000000000000e+00,0.000000000000000000e+00,0.000000000000000000e+00,0.000000000000000000e+00,0.000000000000000000e+00,0.000000000000000000e+00,0.000000000000000000e+00,0.000000000000000000e+00,0.000000000000000000e+00,0.000000000000000000e+00,0.000000000000000000e+00,0.000000000000000000e+00,0.000000000000000000e+00,0.000000000000000000e+00,0.000000000000000000e+00,0.000000000000000000e+00,0.000000000000000000e+00,0.000000000000000000e+00,0.000000000000000000e+00,0.000000000000000000e+00,0.000000000000000000e+00,0.000000000000000000e+00,0.000000000000000000e+00,0.000000000000000000e+00,0.000000000000000000e+00,0.000000000000000000e+00,0.000000000000000000e+00,0.000000000000000000e+00,0.000000000000000000e+00,0.000000000000000000e+00,0.000000000000000000e+00,0.000000000000000000e+00,0.000000000000000000e+00,0.000000000000000000e+00,0.000000000000000000e+00,0.000000000000000000e+00,0.000000000000000000e+00,0.000000000000000000e+00,0.000000000000000000e+00,0.000000000000000000e+00,0.000000000000000000e+00,0.000000000000000000e+00,0.000000000000000000e+00,0.000000000000000000e+00,0.000000000000000000e+00,0.000000000000000000e+00,0.000000000000000000e+00,0.000000000000000000e+00,0.000000000000000000e+00,0.000000000000000000e+00,0.000000000000000000e+00,0.000000000000000000e+00,0.000000000000000000e+00,0.000000000000000000e+00,0.000000000000000000e+00,0.000000000000000000e+00,0.000000000000000000e+00,0.000000000000000000e+00,0.000000000000000000e+00,0.000000000000000000e+00,0.000000000000000000e+00,0.000000000000000000e+00,0.000000000000000000e+00,0.000000000000000000e+00,0.000000000000000000e+00,0.000000000000000000e+00,0.000000000000000000e+00,0.000000000000000000e+00,0.000000000000000000e+00,0.000000000000000000e+00,0.000000000000000000e+00,0.000000000000000000e+00,0.000000000000000000e+00,0.000000000000000000e+00,0.000000000000000000e+00,0.000000000000000000e+00,0.000000000000000000e+00,0.000000000000000000e+00,0.000000000000000000e+00,0.000000000000000000e+00,0.000000000000000000e+00,0.000000000000000000e+00,0.000000000000000000e+00,0.000000000000000000e+00,0.000000000000000000e+00,0.000000000000000000e+00,0.000000000000000000e+00,0.000000000000000000e+00,0.000000000000000000e+00,0.000000000000000000e+00,0.000000000000000000e+00,0.000000000000000000e+00,0.000000000000000000e+00,0.000000000000000000e+00,0.000000000000000000e+00,0.000000000000000000e+00,0.000000000000000000e+00,0.000000000000000000e+00,0.000000000000000000e+00,0.000000000000000000e+00,0.000000000000000000e+00,0.000000000000000000e+00,0.000000000000000000e+00,0.000000000000000000e+00,0.000000000000000000e+00,0.000000000000000000e+00,0.000000000000000000e+00,0.000000000000000000e+00,0.000000000000000000e+00,0.000000000000000000e+00,0.000000000000000000e+00,0.000000000000000000e+00,0.000000000000000000e+00,0.000000000000000000e+00,0.000000000000000000e+00,0.000000000000000000e+00,0.000000000000000000e+00,0.000000000000000000e+00,0.000000000000000000e+00,0.000000000000000000e+00,0.000000000000000000e+00,0.000000000000000000e+00,0.000000000000000000e+00,0.000000000000000000e+00,0.000000000000000000e+00,0.000000000000000000e+00,0.000000000000000000e+00,0.000000000000000000e+00,0.000000000000000000e+00,0.000000000000000000e+00,0.000000000000000000e+00,0.000000000000000000e+00,0.000000000000000000e+00,0.000000000000000000e+00,0.000000000000000000e+00,0.000000000000000000e+00,0.000000000000000000e+00,0.000000000000000000e+00,0.000000000000000000e+00,0.000000000000000000e+00,0.000000000000000000e+00,0.000000000000000000e+00,0.000000000000000000e+00,0.000000000000000000e+00,0.000000000000000000e+00,0.000000000000000000e+00,0.000000000000000000e+00,0.000000000000000000e+00,0.000000000000000000e+00,0.000000000000000000e+00,0.000000000000000000e+00,0.000000000000000000e+00,0.000000000000000000e+00,0.000000000000000000e+00
6.376464482685698654e-01,6.370898125866251149e-01,6.288451266699176534e-01,6.143840966921546576e-01,5.953085436948616360e-01,5.731771875323633525e-01,5.493522500724412616e-01,5.248838494127014975e-01,5.004432594747357799e-01,4.763114677236510719e-01,4.524233753837229033e-01,4.284582553007111883e-01,4.039580990488754186e-01,3.784520506822633967e-01,3.515676894308090161e-01,3.231153473354912431e-01,2.931373236901270718e-01,2.619200730467592941e-01,2.299733158155014001e-01,1.979824293671643420e-01,1.667402267585769982e-01,1.370656349650717643e-01,1.097200263376558321e-01,8.533345752455384625e-02,6.435132932192234867e-02,4.700760702948482417e-02,3.332453955031865200e-02,2.313274436063728068e-02,1.610258505104539620e-02,1.177924354749345683e-02,9.617964343405305608e-03,9.019599039679518024e-03,9.367832520077872677e-03,1.006837573054921234e-02,1.058846428737071632e-02,1.049307193376056851e-02,9.472617931926432741e-03,7.357235019679195936e-03,4.115719511313387785e-03,-1.593170839546211070e-04,-5.276929992803476230e-03,-1.097985038473003536e-02,-1.697783129163274798e-02,-2.297736657499582086e-02,-2.870530360633415101e-02,-3.392713844761047204e-02,-3.846261047421912355e-02,-4.220016638224796668e-02,-4.510813817015586064e-02,-4.723740739878453526e-02,-4.871169411992960080e-02,-4.970610196082689280e-02,-5.041796085747236172e-02,-5.103544912775927894e-02,-5.171012535528443643e-02,-5.253883178592676229e-02,-5.355769271476389093e-02,-5.474745498449813674e-02,-5.604720652906684114e-02,-5.737268180351604019e-02,-5.863484603818387708e-02,-5.975471497468440307e-02,-6.067245859283779130e-02,-6.135141559614690210e-02,-6.177860718255947375e-02,-6.196291568332629868e-02,-6.193174826196058691e-02,-6.172701331448927214e-02,-6.140088220957180126e-02,-6.101117012306507548e-02,-6.061602894635721023e-02,-6.026794606803927146e-02,-6.000755082060315465e-02,-5.985862803858742198e-02,-5.982624269226809871e-02,-5.989886401122489212e-02,-6.005318286377004516e-02,-6.025869958509122437e-02,-6.047999466401470653e-02,-6.067743493063789545e-02,-6.080868111727139036e-02,-6.083199659415659821e-02,-6.071025076573208917e-02,-6.041428072085541084e-02,-5.992548564087542967e-02,-5.923819492131731507e-02,-5.836185252584952243e-02,-5.732222615785984021e-02,-5.616042493439189071e-02,-5.492887329248172940e-02,-5.368458341841227111e-02,-5.248131959377545092e-02,-5.136266625356145088e-02,-5.035757614218411282e-02,-4.947913865645036519e-02,-4.872631316900394999e-02,-4.808723421112467283e-02,-4.754195781277208155e-02,-4.706335338997676837e-02,-4.661710419265031879e-02,-4.616336074029199488e-02,-4.566188313372514934e-02,-4.507992380391200038e-02,-4.439969585689954729e-02,-4.362227891682807918e-02,-4.276713711353526126e-02,-4.186869266613109375e-02,-4.097195215460242707e-02,-4.012812234323277077e-02,-3.938967098926714899e-02,-3.880404474656781733e-02,-3.840663658870471786e-02,-3.821488390234921428e-02,-3.822497406986865437e-02,-3.841118194845095229e-02,-3.872714548751381852e-02,-3.910882561913262695e-02,-3.947949253759405058e-02,-3.975715736579873982e-02,-3.986434334460159379e-02,-3.973875631832738536e-02,-3.934163113523753141e-02,-3.866014015374732993e-02,-3.770267052454546325e-02,-3.648936439920012764e-02,-3.504215200390489726e-02,-3.337807073839854644e-02,-3.150810331507584994e-02,-2.944140184886467893e-02,-2.719222183225266515e-02,-2.478627635033768886e-02,-2.226494130286374440e-02,-1.968713353390112719e-02,-1.712847747178139826e-02,-1.467733121955801072e-02,-1.242803577002970367e-02,-1.047218014932008862e-02,-8.888733648312425670e-03,-7.734411895893238999e-03,-7.036008635550424634e-03,-6.785786845215078730e-03,-6.940241229572405128e-03,-7.422465937726828097e-03,-8.128281036449828620e-03,-8.935623273160039903e-03,-9.715844248831361288e-03,-1.034526542457954966e-02,-1.071626117119063408e-02,-1.074798258937244115e-02,-1.039568766092094018e-02,-9.655954470532373060e-03,-8.565597430974817780e-03,-7.194412541690604554e-03,-5.633815299735146775e-03,-3.984217465050390525e-03,-2.343484499631553423e-03,-7.972100623270879545e-04,5.896888700461873269e-04,1.779825593007172300e-03,2.766634136391758585e-03,3.572151419548060328e-03,4.239818228854104303e-03,4.824827333795765616e-03,5.384567341668007948e-03,5.971149623889278162e-03,6.627345018282127312e-03,7.385732303496276609e-03,8.269220237694704934e-03,9.290859167233198046e-03,1.045209604995805258e-02,1.174035139555325812e-02,1.312802255462853715e-02,1.457487264303289516e-02,1.603382836196446531e-02,1.745778154725937531e-02,1.880469352191917534e-02,2.004068351913938784e-02,2.114296195504761916e-02,2.210391282775798355e-02,2.293535009344051245e-02,2.367072705321845300e-02,2.436376335034151630e-02,2.508314395554294904e-02,2.590360291392201919e-02,2.689441598201406519e-02,2.810746194734823483e-02,2.956768631508856215e-02,3.126818714938771337e-02,3.317052682683860332e-02,3.520927420764664167e-02,3.729919897539213380e-02,3.934415044416508800e-02,4.124736803133139534e-02,4.292266933138341733e-02,4.430517118790726350e-02,4.536009693187686292e-02,4.608864117993033416e-02,4.653002439186060962e-02,4.675892460199689016e-02,4.687810786899228310e-02,4.700726930065172310e-02,4.726987907698690372e-02,4.777980649177230449e-02,4.862944171525902803e-02,4.988103515222044870e-02,5.156211413709598651e-02,5.366424414197140669e-02,5.614358199872029193e-02,5.892258331652198977e-02,6.189390168146211707e-02,6.492791378652292000e-02,6.788373626470038669e-02,7.062171293014517237e-02,7.301503066015271881e-02,7.495925652247793780e-02,7.637976884178544756e-02,7.723751996475355930e-02,7.753338017216980516e-02,7.731052102410125582e-02,7.665339266352350078e-02,7.568203316828381322e-02,7.454187446943162654e-02,7.339043642227643938e-02,7.238246845044932209e-02,7.165488107135666029e-02,7.131296160276967555e-02,7.141963337332020434e-02,7.198924719414935558e-02,7.298663557502363397e-02,7.433128979803996228e-02,7.590560398777933260e-02,7.756553887773418032e-02,7.915222195228949209e-02,8.050361826936104637e-02,8.146595209913273794e-02,8.190468969129302557e-02,8.171453725891515696e-02,8.082748356038613191e-02,7.921798527212794983e-02,7.690508563052345092e-02,7.395178537808028141e-02,7.046139022914060801e-02,6.656949352824378940e-02,6.243065543169058762e-02,5.820145641441913653e-02,5.402435148100835638e-02,5.001626127189608140e-02,4.626212746893060973e-02,4.281108685366968869e-02,3.967382110756408758e-02,3.682159368566494811e-02,3.418829339732126771e-02,3.167656027306862271e-02,2.916813240745944752e-02,2.653740775098268126e-02,2.366638410547165089e-02,2.045867786421757747e-02,1.685059519134355852e-02,1.281827304722928107e-02,8.380613172417939599e-03,3.597812271667388383e-03,-1.434261677247129513e-03,-6.592830514830766604e-03,-1.173905348348140178e-02,-1.673050233467154521e-02,-2.143489702334691605e-02,-2.574406010627824926e-02,-2.958620874927626529e-02,-3.293410046955095455e-02,-3.580681638677231382e-02,-3.826480954325130190e-02,-4.040014228356076514e-02,-4.232435491444466041e-02,-4.415518085162574435e-02,-4.600248022649430085e-02,-4.795416595900368895e-02,-5.006364832438721379e-02,-5.234073863491009448e-02,-5.474801505119884781e-02,-5.720431072595660166e-02,-5.959585191112177355e-02,-6.179346949675650763e-02,-6.367213563828860723e-02,-6.512841221162966876e-02,-6.609277260093786299e-02,-6.653604628074227811e-02,-6.647097056063941412e-02,-6.595044730491048113e-02,-6.506371488857519425e-02,-6.393066806735982210e-02,-6.269375331138259122e-02,-6.150687371449928970e-02,-6.052165748296798459e-02,-5.987291262538164960e-02,-5.966600219300630115e-02,-5.996824129301902423e-02,-6.080491856182044380e-02,-6.215938186439378538e-02,-6.397590069214917352e-02,-6.616386392830524155e-02,-6.860284822224346768e-02,-7.114950400285936782e-02,-7.364757964215418173e-02,-7.594147266654410755e-02,-7.789212157817201887e-02,-7.939255965742227084e-02,-8.038004133982000476e-02,-8.084268175525717581e-02,-8.081995903841319995e-02,-8.039733395979313524e-02,-7.969584441855229184e-02,-7.885790428647054817e-02,-7.803044034687647845e-02,-7.734646674583377235e-02,-7.690716268084056562e-02,-7.676794165266745407e-02,-7.693185394154099244e-02,-7.735152053392747862e-02,-7.793859046925892542e-02,-7.857851962952380753e-02,-7.914771708387827176e-02,-7.952992026198749120e-02,-7.962971071802582568e-02,-7.938262530273790252e-02,-7.876188670993972130e-02,-7.778138674115855911e-02,-7.649450404029944917e-02,-7.498906729730762943e-02,-7.337938853507602888e-02,-7.179617447757336013e-02,-7.037476137287791700e-02,-6.924221137093218570e-02,-6.850437792815519678e-02,-6.823456694087705332e-02,-6.846549246377693632e-02,-6.918576467552847720e-02,-7.034126830766306016e-02,-7.184089232376397738e-02,-7.356549411978510755e-02,-7.537868227043996450e-02,-7.713795713058263503e-02,-7.870525995666487196e-02,-7.995706665891992582e-02,-8.079477740645181483e-02,-8.115525165673720398e-02,-8.101967397255398218e-02,-8.041830210760239628e-02,-7.942955661675839274e-02,-7.817321426867498979e-02,-7.679809478444665771e-02,-7.546482036006153804e-02,-7.432507602356754062e-02,-7.350085989482238458e-02,-7.306919093732684722e-02,-7.305690814162904556e-02,-7.344559427533156604e-02,-7.418171758153765949e-02,-7.518616676509791430e-02,-7.636029802208414707e-02,-7.758904842839253746e-02,-7.874365055603577135e-02,-7.968702861982360219e-02,-8.028413682021495745e-02,-8.041701248029890781e-02,-8.000103121026186370e-02,-7.899735415804988448e-02,-7.741847772223482693e-02,-7.532736265644052187e-02,-7.283228685716185147e-02,-7.007821081593773593e-02,-6.723388866023621846e-02,-6.447497511147684546e-02,-6.196573348879701876e-02,-5.984284945619555013e-02,-5.820402523597162370e-02,-5.710263791858427584e-02,-5.654820163675271238e-02,-5.651106860678976190e-02,-5.692940570528990524e-02,-5.771701432020974465e-02,-5.877139650426890100e-02,-5.998195152628781751e-02,-6.123820633263519359e-02,-6.243780037047287623e-02,-6.349361246231394196e-02,-6.433917439896821855e-02,-6.493186112925421194e-02,-6.525402489617848634e-02,-6.531238110830925314e-02,-6.513562951753422425e-02,-6.477038353922728864e-02,-6.427577455993774280e-02,-6.371690956885391055e-02,-6.315747127207638201e-02,-6.265270497600122779e-02,-6.224442496780638323e-02,-6.195868976432892389e-02,-6.180567932127289943e-02,-6.178104845804696654e-02,-6.186822395755436910e-02,-6.204131228238738555e-02,-6.226862478776616638e-02,-6.251699758961405673e-02,-6.275637660632946146e-02,-6.296310324291549965e-02,-6.312061075872317517e-02,-6.321813039262989820e-02,-6.324962489898060258e-02,-6.321468497430983435e-02,-6.312107668526811821e-02,-6.298711185340030716e-02,-6.284211273274468990e-02,-6.272439266185320106e-02,-6.267748684542263915e-02,-6.274610076167819184e-02,-6.297271055401636175e-02,-6.339436631550474099e-02,-6.403864339895458391e-02,-6.491855816020425385e-02,-6.602745879302732157e-02,-6.733517755719753417e-02,-6.878625788560875642e-02,-7.030085800733862356e-02,-7.177919973463248171e-02,-7.311009160827398878e-02,-7.418253415437725540e-02,-7.489814452039547654e-02,-7.518243092033727315e-02,-7.499369702619054778e-02,-7.432826293470322365e-02,-7.322066507211116848e-02,-7.173866241897189355e-02,-6.997438802191970064e-02,-6.803356024098596022e-02,-6.602454839932601904e-02,-6.404891114018058940e-02,-6.219447260785183201e-02,-6.053106345812078737e-02,-5.910845151804215020e-02,-5.795563871265376615e-02,-5.708033326733367996e-02,-5.646794603082207903e-02,-5.608123323131698756e-02,-5.586286538742936403e-02,-5.574194912252460749e-02,-5.564277360815114704e-02,-5.549274320039368491e-02,-5.522808840827647670e-02,-5.479850703146490337e-02,-5.417245254767146662e-02,-5.334292397590568308e-02,-5.233128216163418500e-02,-5.118625872523284437e-02,-4.997773189423149187e-02,-4.878777831542362164e-02,-4.770193328144268358e-02,-4.680167525114906080e-02,-4.615773058334749629e-02,-4.582418258348763818e-02,-4.583416406181107378e-02,-4.619777148277871143e-02,-4.690232662012120551e-02,-4.791487375389649750e-02,-4.918613498381107368e-02,-5.065422998044440822e-02,-5.224701627385924113e-02,-5.388407387844970642e-02,-5.548089843985854613e-02,-5.695694981550550318e-02,-5.824646550681039647e-02,-5.930872156431812176e-02,-6.013417373707251323e-02,-6.074420840524645537e-02,-6.118430269582487979e-02,-6.151260343833890587e-02,-6.178702035447188046e-02,-6.205323534912177835e-02,-6.233496026680451080e-02,-6.262796243509366478e-02,-6.289991131289165982e-02,-6.309682860035287222e-02,-6.315429339909933715e-02,-6.301013266882725394e-02,-6.261593034018286819e-02,-6.194593763952414150e-02,-6.100270583355092702e-02,-5.981904965900845111e-02,-5.845639666526145778e-02,-5.700011722149173760e-02,-5.555231305225467181e-02,-5.422208415559893330e-02,-5.311378051788811366e-02,-5.231516521841945294e-02,-5.188834094768141059e-02,-5.186570306210334935e-02,-5.225121712063074408e-02,-5.302491815721708385e-02,-5.414715205778487805e-02,-5.556022401043581027e-02,-5.718831752590960993e-02,-5.893873941707278297e-02,-6.070680724665761252e-02,-6.238434296174468624e-02,-6.386975204012282359e-02,-6.507715282913838217e-02,-6.594325873491650725e-02,-6.643240576231768113e-02,-6.654035525120047256e-02,-6.629628303270695966e-02,-6.576123856397970979e-02,-6.502144732892450874e-02,-6.417661111817202224e-02,-6.332600377282132653e-02,-6.255613817471535054e-02,-6.193214903562208745e-02,-6.149314403984533495e-02,-6.125134689546292421e-02,-6.119478347677050761e-02,-6.129265623335075630e-02,-6.150222431072471796e-02,-6.177626480507580897e-02,-6.207025126976786766e-02,-6.234814862272277519e-02,-6.258589115641861877e-02,-6.277219047657672801e-02,-6.290675176843071870e-02,-6.299634848460999859e-02,-6.304977053464087822e-02,-6.307304639464393625e-02,-6.306652667410136970e-02,-6.302551053257997304e-02,-6.294487012324136155e-02,-6.282530402270521119e-02,-6.267724153951108323e-02,-6.251991416900877507e-02,-6.237586239988168052e-02,-6.226296289052193900e-02,-6.218666269522894752e-02,-6.213487027836353538e-02,-6.207720866900276468e-02,-6.196917514379743364e-02,-6.176001148189345230e-02,-6.140148535738999130e-02,-6.085477035651318256e-02,-6.009430297802714066e-02,-5.910933690890476933e-02,-5.790457514821820834e-02,-5.650068696152936443e-02,-5.493446090871800108e-02,-5.325766691366646405e-02,-5.153392320472511418e-02,-4.983365215336671428e-02,-4.822766513959066137e-02,-4.678003301228540745e-02,-4.554138559456603896e-02,-4.454420747406156317e-02,-4.380095814493039502e-02,-4.330433622365149893e-02,-4.302831954398218112e-02,-4.292944459258497131e-02,-4.294912212242433386e-02,-4.301808105906552299e-02,-4.306311653345785279e-02,-4.301522179643286342e-02,-4.281752930689661923e-02,-4.243154171539130493e-02,-4.184099883289689459e-02,-4.105357583624878737e-02,-4.010065002516906979e-02,-3.903508064222593887e-02,-3.792696529466944161e-02,-3.685742856590742966e-02,-3.591031074792272459e-02,-3.516145546597611998e-02,-3.466571108748486840e-02,-3.444299826742214243e-02,-3.446645238009416606e-02,-3.465663311097332000e-02,-3.488504962233709289e-02,-3.498792072083032473e-02,-3.478831092334126740e-02,-3.412240788267276864e-02,-3.286429200354902547e-02,-3.094387334358134761e-02,-2.835492176613656212e-02,-2.515307220689676215e-02,-2.144569905433273138e-02,-1.737639679954926242e-02,-1.310734313987684668e-02,-8.802993967850140586e-03,-4.617671538637701557e-03,-6.879188804019001824e-04,2.871074433560636113e-03,5.966595245369467684e-03,8.528997200218987190e-03,1.051329185421969077e-02,1.190204201400863089e-02,1.270853052606775273e-02,1.297881688036508531e-02,1.279145391352716488e-02,1.225358042003859248e-02,1.149267907322857989e-02,1.064516362459825595e-02,9.844819296916100526e-03,9.214026902461657648e-03,8.858455559042252916e-03,8.863498147032029817e-03,9.290246931701818395e-03,1.017056396668408053e-02,1.150338881288379654e-02,1.325562341925635296e-02,1.536918497465881994e-02,1.777220292789757905e-02,2.038997643678065394e-02,2.315203718803664906e-02,2.599453435371644125e-02,2.885985739617094245e-02,3.169608992984616208e-02,3.445758887425749012e-02,3.710659184264032684e-02,3.961554099526501393e-02,4.196991277274694093e-02,4.417076519075069374e-02,4.623540170433011048e-02,4.819433656032063445e-02,5.008368030124681070e-02,5.193407144974310219e-02,5.375891146264055731e-02,5.554438636345725155e-02,5.724223666597918342e-02,5.876579949490179366e-02,5.999142946511926144e-02,6.076866688077263434e-02,6.094049067601971237e-02,6.037022360611946081e-02,5.896772115724120689e-02,5.670728999454427433e-02,5.363335899343008029e-02,4.985442553082860412e-02,4.552843473712413214e-02,4.084341453741138078e-02,3.599687842658753217e-02,3.117661542583593029e-02,2.654455027728440733e-02,2.222478551958341833e-02,1.829640021012666692e-02,1.479094038780395109e-02,1.169417330117509569e-02,8.951724303933790775e-03,6.478496048830689746e-03,4.171803766509393253e-03,1.926910069645076592e-03,-3.486664957768649000e-04,-2.726347543060898392e-03,-5.254976805013650970e-03,-7.965008028537164803e-03,-1.087494421007639822e-02,-1.399611940806612734e-02,-1.733293422963994371e-02,-2.087859926716411491e-02,-2.460943910195096881e-02,-2.848123012599408296e-02,-3.242914896780859507e-02,-3.637102220244135820e-02,-4.021315612504708370e-02,-4.385870159238551558e-02,-4.721876248358496120e-02,-5.022524463404949568e-02,-5.284246150949340609e-02,-5.507360992895721230e-02,-5.695940047397309025e-02,-5.856864345472673206e-02,-5.998317758804967703e-02,-6.128137588005082292e-02,-6.252481899274915655e-02,-6.375103572054803547e-02,-6.497237268353396600e-02,-6.617903557669942149e-02,-6.734408567422188463e-02,-6.842901237771412126e-02,-6.938939382189622529e-02,-7.018068096986021520e-02,-7.076424515767303081e-02,-7.111329325550057312e-02,-7.121737862117021034e-02,-7.108414402163308610e-02,-7.073796956248473711e-02,-7.021627325690552035e-02,-6.956438273170252595e-02,-6.882962241954825033e-02,-6.805545269293801491e-02,-6.727676814684058204e-02,-6.651700279556567452e-02,-6.578719053436406228e-02,-6.508725399119733024e-02,-6.440959820087813203e-02,-6.374401633983409199e-02,-6.308210616185296049e-02,-6.242010828899237362e-02,-6.176081421110946740e-02,-6.111596853403564872e-02,-6.050967841397856400e-02,-5.998208394913763508e-02,-5.959197014394678610e-02,-5.941691387294522481e-02,-5.954961670491426551e-02,-6.008961881888079393e-02,-6.113115226630649185e-02,-6.274972579245161053e-02,-6.499068384971003198e-02,-6.786222432796265580e-02,-7.133375993138507676e-02,-7.533857785570727272e-02,-7.977869601581193126e-02,-8.453076192945552236e-02,-8.945345501434048829e-02,-9.439591874274981531e-02,-9.920286213059854863e-02,-1.037097468050247329e-01,-1.077246892206099593e-01,-1.109996180183961123e-01,-1.131974016636537600e-01,-1.138640956625425610e-01,-1.124167348452811549e-01,-1.081546463896762844e-01,-1.002956634047706685e-01,-8.803232273544675524e-02,-7.060009027286709427e-02,-4.734863875604036765e-02,-1.780761059285684150e-02,1.825912255338541304e-02,6.081334323688677990e-02,1.095172986907694823e-01,1.637236940072225866e-01,2.224806589741642193e-01,2.845514823510413849e-01,3.484501928777060664e-01,4.124950339017281475e-01,4.748801100421407018e-01,5.337624063328446633e-01,5.873611208533635608e-01,6.340679257190888762e-01,6.725640095191710577e-01,7.019311028514559903e-01,7.217362407565941496e-01,7.320706038138097282e-01,0.000000000000000000e+00,0.000000000000000000e+00,0.000000000000000000e+00,0.000000000000000000e+00,0.000000000000000000e+00,0.000000000000000000e+00,0.000000000000000000e+00,0.000000000000000000e+00,0.000000000000000000e+00,0.000000000000000000e+00,0.000000000000000000e+00,0.000000000000000000e+00,0.000000000000000000e+00,0.000000000000000000e+00,0.000000000000000000e+00,0.000000000000000000e+00,0.000000000000000000e+00,0.000000000000000000e+00,0.000000000000000000e+00,0.000000000000000000e+00,0.000000000000000000e+00,0.000000000000000000e+00,0.000000000000000000e+00,0.000000000000000000e+00,0.000000000000000000e+00,0.000000000000000000e+00,0.000000000000000000e+00,0.000000000000000000e+00,0.000000000000000000e+00,0.000000000000000000e+00,0.000000000000000000e+00,0.000000000000000000e+00,0.000000000000000000e+00,0.000000000000000000e+00,0.000000000000000000e+00,0.000000000000000000e+00,0.000000000000000000e+00,0.000000000000000000e+00,0.000000000000000000e+00,0.000000000000000000e+00,0.000000000000000000e+00,0.000000000000000000e+00,0.000000000000000000e+00,0.000000000000000000e+00,0.000000000000000000e+00,0.000000000000000000e+00,0.000000000000000000e+00,0.000000000000000000e+00,0.000000000000000000e+00,0.000000000000000000e+00,0.000000000000000000e+00,0.000000000000000000e+00,0.000000000000000000e+00,0.000000000000000000e+00,0.000000000000000000e+00,0.000000000000000000e+00,0.000000000000000000e+00,0.000000000000000000e+00,0.000000000000000000e+00,0.000000000000000000e+00,0.000000000000000000e+00,0.000000000000000000e+00,0.000000000000000000e+00,0.000000000000000000e+00,0.000000000000000000e+00,0.000000000000000000e+00,0.000000000000000000e+00,0.000000000000000000e+00,0.000000000000000000e+00,0.000000000000000000e+00,0.000000000000000000e+00,0.000000000000000000e+00,0.000000000000000000e+00,0.000000000000000000e+00,0.000000000000000000e+00,0.000000000000000000e+00,0.000000000000000000e+00,0.000000000000000000e+00,0.000000000000000000e+00,0.000000000000000000e+00,0.000000000000000000e+00,0.000000000000000000e+00,0.000000000000000000e+00,0.000000000000000000e+00,0.000000000000000000e+00,0.000000000000000000e+00,0.000000000000000000e+00,0.000000000000000000e+00,0.000000000000000000e+00,0.000000000000000000e+00,0.000000000000000000e+00,0.000000000000000000e+00,0.000000000000000000e+00,0.000000000000000000e+00,0.000000000000000000e+00,0.000000000000000000e+00,0.000000000000000000e+00,0.000000000000000000e+00,0.000000000000000000e+00,0.000000000000000000e+00,0.000000000000000000e+00,0.000000000000000000e+00,0.000000000000000000e+00,0.000000000000000000e+00,0.000000000000000000e+00,0.000000000000000000e+00,0.000000000000000000e+00,0.000000000000000000e+00,0.000000000000000000e+00,0.000000000000000000e+00,0.000000000000000000e+00,0.000000000000000000e+00,0.000000000000000000e+00,0.000000000000000000e+00,0.000000000000000000e+00,0.000000000000000000e+00,0.000000000000000000e+00,0.000000000000000000e+00,0.000000000000000000e+00,0.000000000000000000e+00,0.000000000000000000e+00,0.000000000000000000e+00,0.000000000000000000e+00,0.000000000000000000e+00,0.000000000000000000e+00,0.000000000000000000e+00,0.000000000000000000e+00,0.000000000000000000e+00,0.000000000000000000e+00,0.000000000000000000e+00,0.000000000000000000e+00,0.000000000000000000e+00,0.000000000000000000e+00,0.000000000000000000e+00,0.000000000000000000e+00,0.000000000000000000e+00,0.000000000000000000e+00,0.000000000000000000e+00,0.000000000000000000e+00,0.000000000000000000e+00,0.000000000000000000e+00,0.000000000000000000e+00,0.000000000000000000e+00,0.000000000000000000e+00,0.000000000000000000e+00,0.000000000000000000e+00,0.000000000000000000e+00,0.000000000000000000e+00,0.000000000000000000e+00,0.000000000000000000e+00,0.000000000000000000e+00,0.000000000000000000e+00,0.000000000000000000e+00,0.000000000000000000e+00,0.000000000000000000e+00,0.000000000000000000e+00,0.000000000000000000e+00,0.000000000000000000e+00,0.000000000000000000e+00,0.000000000000000000e+00,0.000000000000000000e+00,0.000000000000000000e+00,0.000000000000000000e+00,0.000000000000000000e+00,0.000000000000000000e+00,0.000000000000000000e+00,0.000000000000000000e+00,0.000000000000000000e+00,0.000000000000000000e+00,0.000000000000000000e+00,0.000000000000000000e+00,0.000000000000000000e+00,0.000000000000000000e+00,0.000000000000000000e+00,0.000000000000000000e+00,0.000000000000000000e+00,0.000000000000000000e+00,0.000000000000000000e+00,0.000000000000000000e+00,0.000000000000000000e+00,0.000000000000000000e+00,0.000000000000000000e+00,0.000000000000000000e+00,0.000000000000000000e+00,0.000000000000000000e+00,0.000000000000000000e+00,0.000000000000000000e+00,0.000000000000000000e+00,0.000000000000000000e+00,0.000000000000000000e+00,0.000000000000000000e+00,0.000000000000000000e+00,0.000000000000000000e+00,0.000000000000000000e+00,0.000000000000000000e+00,0.000000000000000000e+00,0.000000000000000000e+00,0.000000000000000000e+00,0.000000000000000000e+00,0.000000000000000000e+00,0.000000000000000000e+00,0.000000000000000000e+00,0.000000000000000000e+00,0.000000000000000000e+00,0.000000000000000000e+00,0.000000000000000000e+00,0.000000000000000000e+00,0.000000000000000000e+00,0.000000000000000000e+00,0.000000000000000000e+00,0.000000000000000000e+00,0.000000000000000000e+00,0.000000000000000000e+00,0.000000000000000000e+00,0.000000000000000000e+00,0.000000000000000000e+00,0.000000000000000000e+00,0.000000000000000000e+00,0.000000000000000000e+00,0.000000000000000000e+00,0.000000000000000000e+00,0.000000000000000000e+00,0.000000000000000000e+00,0.000000000000000000e+00,0.000000000000000000e+00,0.000000000000000000e+00,0.000000000000000000e+00,0.000000000000000000e+00,0.000000000000000000e+00,0.000000000000000000e+00,0.000000000000000000e+00,0.000000000000000000e+00,0.000000000000000000e+00,0.000000000000000000e+00,0.000000000000000000e+00,0.000000000000000000e+00,0.000000000000000000e+00,0.000000000000000000e+00,0.000000000000000000e+00,0.000000000000000000e+00,0.000000000000000000e+00,0.000000000000000000e+00,0.000000000000000000e+00,0.000000000000000000e+00,0.000000000000000000e+00,0.000000000000000000e+00,0.000000000000000000e+00,0.000000000000000000e+00,0.000000000000000000e+00,0.000000000000000000e+00,0.000000000000000000e+00,0.000000000000000000e+00,0.000000000000000000e+00,0.000000000000000000e+00,0.000000000000000000e+00,0.000000000000000000e+00,0.000000000000000000e+00,0.000000000000000000e+00,0.000000000000000000e+00,0.000000000000000000e+00,0.000000000000000000e+00,0.000000000000000000e+00,0.000000000000000000e+00,0.000000000000000000e+00,0.000000000000000000e+00,0.000000000000000000e+00,0.000000000000000000e+00,0.000000000000000000e+00,0.000000000000000000e+00,0.000000000000000000e+00,0.000000000000000000e+00,0.000000000000000000e+00,0.000000000000000000e+00,0.000000000000000000e+00,0.000000000000000000e+00,0.000000000000000000e+00,0.000000000000000000e+00,0.000000000000000000e+00,0.000000000000000000e+00,0.000000000000000000e+00,0.000000000000000000e+00,0.000000000000000000e+00,0.000000000000000000e+00,0.000000000000000000e+00,0.000000000000000000e+00,0.000000000000000000e+00,0.000000000000000000e+00,0.000000000000000000e+00,0.000000000000000000e+00,0.000000000000000000e+00,0.000000000000000000e+00,0.000000000000000000e+00,0.000000000000000000e+00,0.000000000000000000e+00,0.000000000000000000e+00,0.000000000000000000e+00,0.000000000000000000e+00,0.000000000000000000e+00,0.000000000000000000e+00,0.000000000000000000e+00,0.000000000000000000e+00,0.000000000000000000e+00,0.000000000000000000e+00,0.000000000000000000e+00,0.000000000000000000e+00,0.000000000000000000e+00,0.000000000000000000e+00,0.000000000000000000e+00,0.000000000000000000e+00,0.000000000000000000e+00,0.000000000000000000e+00,0.000000000000000000e+00,0.000000000000000000e+00,0.000000000000000000e+00,0.000000000000000000e+00,0.000000000000000000e+00,0.000000000000000000e+00,0.000000000000000000e+00,0.000000000000000000e+00,0.000000000000000000e+00,0.000000000000000000e+00,0.000000000000000000e+00,0.000000000000000000e+00,0.000000000000000000e+00,0.000000000000000000e+00,0.000000000000000000e+00,0.000000000000000000e+00,0.000000000000000000e+00,0.000000000000000000e+00,0.000000000000000000e+00,0.000000000000000000e+00,0.000000000000000000e+00,0.000000000000000000e+00,0.000000000000000000e+00,0.000000000000000000e+00,0.000000000000000000e+00,0.000000000000000000e+00,0.000000000000000000e+00,0.000000000000000000e+00,0.000000000000000000e+00,0.000000000000000000e+00,0.000000000000000000e+00,0.000000000000000000e+00,0.000000000000000000e+00,0.000000000000000000e+00,0.000000000000000000e+00,0.000000000000000000e+00,0.000000000000000000e+00,0.000000000000000000e+00,0.000000000000000000e+00,0.000000000000000000e+00,0.000000000000000000e+00,0.000000000000000000e+00,0.000000000000000000e+00,0.000000000000000000e+00,0.000000000000000000e+00,0.000000000000000000e+00,0.000000000000000000e+00,0.000000000000000000e+00,0.000000000000000000e+00,0.000000000000000000e+00,0.000000000000000000e+00,0.000000000000000000e+00,0.000000000000000000e+00,0.000000000000000000e+00,0.000000000000000000e+00,0.000000000000000000e+00,0.000000000000000000e+00,0.000000000000000000e+00,0.000000000000000000e+00,0.000000000000000000e+00,0.000000000000000000e+00,0.000000000000000000e+00,0.000000000000000000e+00,0.000000000000000000e+00,0.000000000000000000e+00,0.000000000000000000e+00,0.000000000000000000e+00,0.000000000000000000e+00,0.000000000000000000e+00,0.000000000000000000e+00,0.000000000000000000e+00,0.000000000000000000e+00,0.000000000000000000e+00,0.000000000000000000e+00,0.000000000000000000e+00,0.000000000000000000e+00,0.000000000000000000e+00,0.000000000000000000e+00,0.000000000000000000e+00,0.000000000000000000e+00,0.000000000000000000e+00,0.000000000000000000e+00,0.000000000000000000e+00,0.000000000000000000e+00,0.000000000000000000e+00,0.000000000000000000e+00,0.000000000000000000e+00,0.000000000000000000e+00,0.000000000000000000e+00,0.000000000000000000e+00,0.000000000000000000e+00,0.000000000000000000e+00,0.000000000000000000e+00,0.000000000000000000e+00,0.000000000000000000e+00,0.000000000000000000e+00,0.000000000000000000e+00
7.335314208076231246e-01,7.271472283368863865e-01,7.142555394469416452e-01,6.963481195140299729e-01,6.749048224806806218e-01,6.512402552421610036e-01,6.263848422423772266e-01,6.010152406626571020e-01,5.754422747302085916e-01,5.496559568037258092e-01,5.234158509209273502e-01,4.963664484111738329e-01,4.681556774999779402e-01,4.385383634388173579e-01,4.074514110300004877e-01,3.750522064660974375e-01,3.417178585101450228e-01,3.080103761952178720e-01,2.746176335312714434e-01,2.422801393657715296e-01,2.117127111326386479e-01,1.835308432743747997e-01,1.581924074612672260e-01,1.359638315907767125e-01,1.169151342836584062e-01,1.009415283318702283e-01,8.780340363939248549e-02,7.717315393264397028e-02,6.867757582244017611e-02,6.192898695550824034e-02,5.654495478834686145e-02,5.216149236508445947e-02,4.844491311897947822e-02,4.510427355021524171e-02,4.190290629068670059e-02,3.866631442424269677e-02,3.528461159202880837e-02,3.170948851778288002e-02,2.794710340176779703e-02,2.404854904959369613e-02,2.009869038873865130e-02,1.620320490447010181e-02,1.247379332802771822e-02,9.012818385674276067e-03,5.899876500460062359e-03,3.182806461764990224e-03,8.742119721520613890e-04,-1.047249281313521619e-03,-2.632376605554777836e-03,-3.954735181786657797e-03,-5.101683674100660794e-03,-6.162691425459890932e-03,-7.215509169807559665e-03,-8.312564240063132284e-03,-9.471419048277980590e-03,-1.067300831166017976e-02,-1.186876698824767054e-02,-1.299379297574044904e-02,-1.398088706487063057e-02,-1.477137442729908184e-02,-1.532153864289405830e-02,-1.560547817257870382e-02,-1.561518791838671476e-02,-1.535815677094212045e-02,-1.485318432026316166e-02,-1.412584547691404617e-02,-1.320508509450683647e-02,-1.212205355896295127e-02,-1.091156005804915299e-02,-9.614897365135079144e-03,-8.281177227576692543e-03,-6.964667686235659350e-03,-5.718198362174205414e-03,-4.585311459576615380e-03,-3.594148304377660797e-03,-2.754425963002897059e-03,-2.057668212788313356e-03,-1.480794701692735287e-03,-9.926750612333425528e-04,-5.618264048499468314e-04,-1.627770116626505988e-04,2.200791698861682619e-04,5.905394212745407019e-04,9.398701388924594760e-04,1.247772484711548316e-03,1.485799009837403565e-03,1.622932540674068558e-03,1.632023434661694682e-03,1.495685952068295799e-03,1.210587685067713009e-03,7.893910939968265626e-04,2.602487241659977085e-04,-3.354045967261869935e-04,-9.458086327755197212e-04,-1.512178911994033551e-03,-1.972513598821788987e-03,-2.266199787998301584e-03,-2.339411737476102763e-03,-2.150662012368691808e-03,-1.675437249742257363e-03,-9.093227389521615651e-04,1.300057203576759207e-04,1.401498971978058306e-03,2.840951605056445464e-03,4.364405360206534759e-03,5.875824336132939169e-03,7.278704475086172215e-03,8.489925371729240000e-03,9.453132973381114801e-03,1.014871710128155066e-02,1.059811327650073479e-02,1.086089438489067603e-02,1.102383959665870564e-02,1.118329372536159411e-02,1.142569304592406729e-02,1.181271161659641980e-02,1.237456476320590928e-02,1.311061096417680608e-02,1.399473688308489408e-02,1.498357270097642677e-02,1.602573117871403108e-02,1.706989671502773948e-02,1.807011446404441918e-02,1.898804773011736335e-02,1.979298993653773320e-02,2.046060938889964279e-02,2.097155489214844876e-02,2.131121549821510253e-02,2.147125209154343572e-02,2.145221205823034244e-02,2.126595796137902700e-02,2.093722019856133695e-02,2.050425054447578554e-02,2.001844596664193246e-02,1.954244719127502805e-02,1.914638794166136082e-02,1.890247371347228769e-02,1.887845701442440738e-02,1.913104590753746462e-02,1.970073642457644686e-02,2.060909918709510902e-02,2.185806561657387473e-02,2.342984789920669886e-02,2.528706241621428083e-02,2.737418234982699067e-02,2.962141882226422204e-02,3.195054079906937267e-02,3.428101246759860526e-02,3.653514946462288471e-02,3.864187906225352576e-02,4.053927248899928670e-02,4.217641710344877809e-02,4.351544495926525091e-02,4.453424572314595986e-02,4.522960045214062530e-02,4.561959674985800739e-02,4.574376531500808085e-02,4.566009348144356439e-02,4.543955149623885026e-02,4.515935866542940269e-02,4.489547863631797309e-02,4.471448178138781593e-02,4.466606149557801608e-02,4.477855806384611198e-02,4.505875753506657228e-02,4.549492893734016774e-02,4.606124694387654650e-02,4.672264281741159847e-02,4.743995284740509799e-02,4.817563116923026523e-02,4.890057859027937409e-02,4.960198164664177123e-02,5.029012120039945410e-02,5.100069170759663484e-02,5.179053582364355479e-02,5.272812021705484270e-02,5.388210496728369769e-02,5.531068881374753832e-02,5.705311581347197875e-02,5.912423185132610615e-02,6.151252656362225096e-02,6.418102102061044867e-02,6.706960712262997892e-02,7.009817280645132265e-02,7.317122864786851366e-02,7.618496027284497873e-02,7.903654404789244026e-02,8.163445109488604023e-02,8.390800245105477229e-02,8.581450427342962595e-02,8.734297043487684875e-02,8.851475971823527522e-02,8.938223740757053615e-02,9.002576338210435680e-02,9.054810299957627429e-02,9.106544391734613941e-02,9.169534600541219549e-02,9.254314787991742286e-02,9.368923481982138757e-02,9.517966634171388940e-02,9.702148823986020409e-02,9.918250459353168680e-02,1.015948913177226187e-01,1.041627329123649554e-01,1.067737456226689613e-01,1.093140194745959859e-01,1.116823920078116872e-01,1.138003662301523000e-01,1.156156503394490387e-01,1.171007012241455925e-01,1.182492374164576671e-01,1.190730574495707239e-01,1.195999516951944674e-01,1.198719128576919424e-01,1.199422023200928528e-01,1.198707740869774940e-01,1.197188106201861751e-01,1.195433068805160787e-01,1.193922376103037364e-01,1.193006116554902324e-01,1.192875349163174115e-01,1.193541966211419114e-01,1.194829193241979254e-01,1.196380258655479756e-01,1.197692247477900318e-01,1.198172302072386397e-01,1.197206299874860047e-01,1.194230816061325057e-01,1.188799691644598644e-01,1.180635888860904481e-01,1.169662993388150551e-01,1.156015827247713068e-01,1.140030864684250383e-01,1.122217040485133099e-01,1.103209856783837900e-01,1.083714516220256746e-01,1.064443708821169871e-01,1.046053958131137884e-01,1.029085318817078570e-01,1.013910932430303197e-01,1.000698599300689079e-01,9.893793005602713464e-02,9.796210566135243880e-02,9.708207236777782745e-02,9.621325191960887480e-02,9.525408996341139245e-02,9.409694178922335672e-02,9.264085789725645670e-02,9.080430689887566964e-02,8.853571992632951193e-02,8.581990606350638207e-02,8.267951190039636578e-02,7.917236865452875749e-02,7.538621269359066512e-02,7.143147851376642488e-02,6.743204200659777547e-02,6.351399993142275990e-02,5.979347148731532086e-02,5.636503340880943957e-02,5.329214014012654405e-02,5.060000994685799613e-02,4.827082343023064021e-02,4.624114861497606588e-02,4.440210042171632149e-02,4.260366322684755458e-02,4.066535373222712746e-02,3.839457432134221748e-02,3.561098811154905092e-02,3.217219027354259464e-02,2.799560568635854271e-02,2.307335354004494757e-02,1.747800178517481054e-02,1.135719893618852838e-02,4.916245750234682181e-03,-1.609158321240171255e-03,-7.983959191360844379e-03,-1.400064862307848906e-02,-1.949600311129484620e-02,-2.435699746337317492e-02,-2.852014221723809390e-02,-3.196879923106347304e-02,-3.472970408381072932e-02,-3.686759795180689220e-02,-3.847735484728029287e-02,-3.967428547303289421e-02,-4.058359220398181227e-02,-4.132948180641272951e-02,-4.202433372174185083e-02,-4.275893821052621779e-02,-4.359542093216907388e-02,-4.456416862745934265e-02,-4.566476592034696136e-02,-4.686968316372770726e-02,-4.812946920124486910e-02,-4.937915424579705087e-02,-5.054600117510524293e-02,-5.155831669380981502e-02,-5.235446321764368471e-02,-5.289097721420049636e-02,-5.314892878638806384e-02,-5.313815024525081476e-02,-5.289924149938044634e-02,-5.250317674284893377e-02,-5.204807231628855169e-02,-5.165229596090049197e-02,-5.144284735595723579e-02,-5.153854878407077011e-02,-5.202961478975248050e-02,-5.295811620924371216e-02,-5.430593755433612418e-02,-5.599573709377105718e-02,-5.790540919148103732e-02,-5.989056898204010021e-02,-6.180716148151449429e-02,-6.352845715598386123e-02,-6.495462367421207805e-02,-6.601610464880357243e-02,-6.667325630647327750e-02,-6.691425487120600257e-02,-6.675215509924231627e-02,-6.622125668678861821e-02,-6.537296201791181760e-02,-6.427152244686744342e-02,-6.298985115691935199e-02,-6.160521330947890672e-02,-6.019465244408003096e-02,-5.883020909327964232e-02,-5.757406146367757133e-02,-5.647408375901082078e-02,-5.556078276005613908e-02,-5.484625726086158476e-02,-5.432487299300654826e-02,-5.397492114484864906e-02,-5.376110764131188102e-02,-5.363840003146232160e-02,-5.355734010680623935e-02,-5.346950021661349417e-02,-5.333100493145122301e-02,-5.310341258907209927e-02,-5.275360173765494820e-02,-5.225492957021325019e-02,-5.159033401052483953e-02,-5.075622067792729536e-02,-4.976536887305772067e-02,-4.864763107002464254e-02,-4.744808052870834458e-02,-4.622277035887407959e-02,-4.503257207373616983e-02,-4.393618564453868891e-02,-4.298387923659226229e-02,-4.221295787704643782e-02,-4.164484566301668994e-02,-4.128332429078073601e-02,-4.111413002456157373e-02,-4.110658807458746067e-02,-4.121740766528095984e-02,-4.139580621623172724e-02,-4.158874842740492572e-02,-4.174544498438927803e-02,-4.182102031092468225e-02,-4.177982087365553904e-02,-4.159874043011304451e-02,-4.127042236526830277e-02,-4.080566711532663399e-02,-4.023406226534143731e-02,-3.960204769850356188e-02,-3.896839502191799809e-02,-3.839805239933736375e-02,-3.795583074038348659e-02,-3.770092082696882563e-02,-3.768195726886544583e-02,-3.793160602538533238e-02,-3.846061248093839147e-02,-3.925308901457941896e-02,-4.026565504418489622e-02,-4.143230191588396366e-02,-4.267482579804172949e-02,-4.391574443846267550e-02,-4.508866583344207229e-02,-4.614232228148143489e-02,-4.703835685620445795e-02,-4.774663591166540544e-02,-4.824300354223443749e-02,-4.851229061569292678e-02,-4.855539265693271933e-02,-4.839613166948655149e-02,-4.808343587213786963e-02,-4.768690174482703020e-02,-4.728710352742283851e-02,-4.696390389695959816e-02,-4.678569179684582968e-02,-4.680097958415405796e-02,-4.703276625154918789e-02,-4.747601055128976982e-02,-4.809878750531203923e-02,-4.884765125654180057e-02,-4.965706834110744650e-02,-5.046131384713713197e-02,-5.120573126627889909e-02,-5.185428817870398055e-02,-5.239220296526459625e-02,-5.282434742893304946e-02,-5.317064998871862125e-02,-5.345957575909016102e-02,-5.372120057696118389e-02,-5.398167906291402585e-02,-5.425982819952786251e-02,-5.456515577150201912e-02,-5.489653701623280202e-02,-5.524149170300805822e-02,-5.557654839994093793e-02,-5.586913377346068577e-02,-5.608103505932204857e-02,-5.617333271061513561e-02,-5.611272160019897814e-02,-5.587865300208722658e-02,-5.546984294587699316e-02,-5.490813658992504259e-02,-5.423790135776539179e-02,-5.352018533490864732e-02,-5.282267862539805070e-02,-5.220836349102973839e-02,-5.172661186319577054e-02,-5.140955509456600347e-02,-5.127392460544912683e-02,-5.132583062099614624e-02,-5.156514688936818941e-02,-5.198766535772166714e-02,-5.258525716038599945e-02,-5.334516084436707883e-02,-5.424912346569499277e-02,-5.527254914971737459e-02,-5.638385607742429917e-02,-5.754467101625167225e-02,-5.871154228357831212e-02,-5.983925380075623413e-02,-6.088507756001085985e-02,-6.181289254662730021e-02,-6.259610052193305407e-02,-6.321882638991700720e-02,-6.367593111399702521e-02,-6.397299185759396101e-02,-6.412682114445480974e-02,-6.416585244651283604e-02,-6.412909353495359344e-02,-6.406291959830663629e-02,-6.401621033433772812e-02,-6.403516874898054767e-02,-6.415902362415885907e-02,-6.441715350046318955e-02,-6.482761793379526738e-02,-6.539660959391140060e-02,-6.611796510557073348e-02,-6.697219421090769287e-02,-6.792547048470753968e-02,-6.892981578929867348e-02,-6.992589418713367200e-02,-7.084917256760590865e-02,-7.163846683667927928e-02,-7.224427845768857659e-02,-7.263466134516687045e-02,-7.279829577283210285e-02,-7.274585157127207158e-02,-7.251044592363242725e-02,-7.214675937420485241e-02,-7.172767205319006967e-02,-7.133786516530563060e-02,-7.106496606099885205e-02,-7.098940116071934814e-02,-7.117406180675178717e-02,-7.165489870723222576e-02,-7.243400517300246921e-02,-7.347701533004369345e-02,-7.471602251721864985e-02,-7.605789003077127741e-02,-7.739635951580135786e-02,-7.862519487426899989e-02,-7.964925893935510814e-02,-8.039152761413587145e-02,-8.079638598459285004e-02,-8.083133552113480613e-02,-8.048877509090623938e-02,-7.978745408158570418e-02,-7.877175008211605156e-02,-7.750739756454169682e-02,-7.607405533790576047e-02,-7.455658701182148185e-02,-7.303728119856800483e-02,-7.159059319633463703e-02,-7.028063887718839775e-02,-6.916010414108748894e-02,-6.826854445738637922e-02,-6.762903562975564054e-02,-6.724427716432898605e-02,-6.709487679274035721e-02,-6.714204462469763879e-02,-6.733458009022558199e-02,-6.761805226520421763e-02,-6.794379412389191242e-02,-6.827593588458032159e-02,-6.859524979866697680e-02,-6.889918077725114276e-02,-6.919823423144956520e-02,-6.950967766685284266e-02,-6.985009422767712861e-02,-7.022844443971287820e-02,-7.064097406553686287e-02,-7.106902793729490131e-02,-7.148049844033520228e-02,-7.183466578588890150e-02,-7.208898507401798050e-02,-7.220592633200799415e-02,-7.215829626414545228e-02,-7.193210052011181355e-02,-7.152683900349882107e-02,-7.095392238856471079e-02,-7.023417175872061213e-02,-6.939506565955555484e-02,-6.846804709860214444e-02,-6.748632017470741762e-02,-6.648398702196700594e-02,-6.549696642280425363e-02,-6.456432912207298036e-02,-6.372744659889593988e-02,-6.302598299452391584e-02,-6.249274901616944100e-02,-6.214994130924225701e-02,-6.200694190397459254e-02,-6.205831050683740385e-02,-6.228176064556775748e-02,-6.263764185521102090e-02,-6.307155489075282062e-02,-6.352035313135011296e-02,-6.392030538747298096e-02,-6.421572372595894806e-02,-6.436667532379633516e-02,-6.435466621659372000e-02,-6.418559816607076474e-02,-6.389011388264893843e-02,-6.352167203450967414e-02,-6.315198813213841744e-02,-6.286330674174320232e-02,-6.273808292346871873e-02,-6.284781521654268788e-02,-6.324292131728564970e-02,-6.394486516047646896e-02,-6.494103389207626920e-02,-6.618303885003516684e-02,-6.758992682215965442e-02,-6.905750176075298175e-02,-7.047272726341746729e-02,-7.172954430437038231e-02,-7.274172474558661394e-02,-7.345023167212016979e-02,-7.382526635568753548e-02,-7.386478807226654064e-02,-7.359147583500488810e-02,-7.304929292984591038e-02,-7.229950620876389455e-02,-7.141536162804769383e-02,-7.047543606035135133e-02,-6.955707058553205202e-02,-6.873153721994589016e-02,-6.806107203999718636e-02,-6.759609423143193851e-02,-6.737109307406347058e-02,-6.739986809366262099e-02,-6.767251738696176966e-02,-6.815596338110202490e-02,-6.879787874178555640e-02,-6.953266046755110508e-02,-7.028823066411062082e-02,-7.099306898925940301e-02,-7.158308291495513176e-02,-7.200754955892658959e-02,-7.223304307336826657e-02,-7.224481190867244884e-02,-7.204614988449194179e-02,-7.165649691681071076e-02,-7.110824303892983311e-02,-7.044215437035238059e-02,-6.970242984815193388e-02,-6.893286356222333433e-02,-6.817446190241563397e-02,-6.746385805438774586e-02,-6.683252187710680969e-02,-6.630753080111859155e-02,-6.591346036889385307e-02,-6.567308117393447220e-02,-6.560483334495330332e-02,-6.571737414968083224e-02,-6.600336918003067710e-02,-6.643494778455005800e-02,-6.696262232263235081e-02,-6.751868810730775328e-02,-6.802511204821461155e-02,-6.840460461682994209e-02,-6.859235357418658197e-02,-6.854550591837911544e-02,-6.824840271626143873e-02,-6.771339653443256279e-02,-6.697859547076745468e-02,-6.610398171480653950e-02,-6.516618878639923729e-02,-6.425128270213391335e-02,-6.344536913549891910e-02,-6.282429255681400149e-02,-6.244484138579100424e-02,-6.233970846985142922e-02,-6.251662204673082146e-02,-6.295991246676682640e-02,-6.363263790349460436e-02,-6.447913293646906352e-02,-6.542892604978654825e-02,-6.640238961488083291e-02,-6.731750968588941231e-02,-6.809684733943252577e-02,-6.867390180180561743e-02,-6.899815561725118618e-02,-6.903820592777200338e-02,-6.878289896590879249e-02,-6.824140934652354884e-02,-6.744419572722121226e-02,-6.644578760313928079e-02,-6.532712076875063500e-02,-6.419328957657438606e-02,-6.316452403863491438e-02,-6.236162345775854432e-02,-6.188919266187579982e-02,-6.182051108706387854e-02,-6.218721994186642704e-02,-6.297542099390131265e-02,-6.412788568958702196e-02,-6.555094254205048876e-02,-6.712442683314992498e-02,-6.871330542824974352e-02,-7.018010056917312056e-02,-7.139777278547058958e-02,-7.226253290530731954e-02,-7.270509853415896284e-02,-7.269825346798625132e-02,-7.225921408277409530e-02,-7.144701400526323742e-02,-7.035645127633295692e-02,-6.911001078767509131e-02,-6.784806253595965231e-02,-6.671696305261126669e-02,-6.585525432032095228e-02,-6.537920916763635681e-02,-6.536933981929814175e-02,-6.585963208998663054e-02,-6.683204632807955570e-02,-6.821877566946328575e-02,-6.991217667972422778e-02,-7.177894709518933825e-02,-7.367432342911303667e-02,-7.545417090875856936e-02,-7.698517496818528538e-02,-7.815382018119072793e-02,-7.887404207816502144e-02,-7.909304419524047780e-02,-7.879497786778766333e-02,-7.800201451864377522e-02,-7.677191225983349965e-02,-7.519159533244861027e-02,-7.336751297787609538e-02,-7.141442262883562764e-02,-6.944440001715534994e-02,-6.755786697715324141e-02,-6.583794269723547421e-02,-6.434799247792372112e-02,-6.313090114893649130e-02,-6.220860667979010578e-02,-6.158145634465704565e-02,-6.122780229630165466e-02,-6.110470271995450953e-02,-6.115112074885961646e-02,-6.129493212765577126e-02,-6.146328457096102149e-02,-6.159355813536165902e-02,-6.164171516198620887e-02,-6.158645526216180444e-02,-6.142954442866231657e-02,-6.119375355847934961e-02,-6.091983278609911651e-02,-6.066286950293601349e-02,-6.048711648260057111e-02,-6.045852254309259238e-02,-6.063577079026278432e-02,-6.106189693490238213e-02,-6.175832786669731983e-02,-6.272182949014072639e-02,-6.392386220298748589e-02,-6.531223148092095421e-02,-6.681557450454464475e-02,-6.835063062024090974e-02,-6.983112156603255016e-02,-7.117667652725487293e-02,-7.232027976428598293e-02,-7.321284276982102657e-02,-7.382437325516753857e-02,-7.414280568161900342e-02,-7.417237835706952387e-02,-7.393274483664961927e-02,-7.345886002372109536e-02,-7.280074506795022882e-02,-7.202139688168344989e-02,-7.119143392254989600e-02,-7.038121683197258449e-02,-6.965296557225506002e-02,-6.905477487808128756e-02,-6.861676904502382601e-02,-6.834918796296113319e-02,-6.824288272278020151e-02,-6.827281615441643803e-02,-6.840389162227990261e-02,-6.859730751860083908e-02,-6.881645963200086480e-02,-6.903281638809058429e-02,-6.923160708386989770e-02,-6.941547956697878552e-02,-6.960413926744726809e-02,-6.982924751588256984e-02,-7.012507758775270161e-02,-7.051709770711989123e-02,-7.101302246126098283e-02,-7.160121787461203036e-02,-7.225748435624189392e-02,-7.295591848199395324e-02,-7.367755352521376810e-02,-7.441272286540183412e-02,-7.515689854079801724e-02,-7.590295649847920989e-02,-7.663423073956274201e-02,-7.732151072593758390e-02,-7.792452528068470607e-02,-7.839697470505796462e-02,-7.869410284883424089e-02,-7.878132335096189875e-02,-7.864137954548790221e-02,-7.827778234624876985e-02,-7.771412399722381348e-02,-7.699046249128885244e-02,-7.615839876426253041e-02,-7.527629781820874277e-02,-7.440540340934267971e-02,-7.360628247281499059e-02,-7.293431252872503712e-02,-7.243378002627891277e-02,-7.213158887434822919e-02,-7.203222836371302173e-02,-7.211552600530397872e-02,-7.233810294672786412e-02,-7.263835659862313832e-02,-7.294389280380166041e-02,-7.318027210088527690e-02,-7.328008991483987711e-02,-7.319104107178846241e-02,-7.288128210525557371e-02,-7.234097691756959103e-02,-7.158032739373071385e-02,-7.062581279187890582e-02,-6.951676103311092703e-02,-6.830332142899189773e-02,-6.704521807421139068e-02,-6.580968052270977364e-02,-6.466725419194570279e-02,-6.368538564108533473e-02,-6.292096925778795091e-02,-6.241369111934064878e-02,-6.218165651512644332e-02,-6.221978872737375654e-02,-6.250066809158051628e-02,-6.297728112170621062e-02,-6.358717922224040031e-02,-6.425752531316653027e-02,-6.491087733322470354e-02,-6.547222220507052659e-02,-6.587751656700262248e-02,-6.608245304015318566e-02,-6.606893913534495066e-02,-6.584718185234270105e-02,-6.545273548172488021e-02,-6.493930028962095757e-02,-6.436915893855559012e-02,-6.380394270026240600e-02,-6.329857790941391393e-02,-6.290003977028678361e-02,-6.264990712717367904e-02,-6.258720227565899019e-02,-6.274759871012555723e-02,-6.315753408004246006e-02,-6.382572008598914881e-02,-6.473681079503179614e-02,-6.585037695755247000e-02,-6.710451559518497422e-02,-6.842122765913553895e-02,-6.971171760947664220e-02,-7.088206689174382513e-02,-7.184056268607641460e-02,-7.250669299198707340e-02,-7.282018992190272821e-02,-7.274826489234419158e-02,-7.228987657468063932e-02,-7.147627172227534464e-02,-7.036731795810535761e-02,-6.904391130059332748e-02,-6.759781992634762704e-02,-6.612096554272182958e-02,-6.469562429295548645e-02,-6.338581614621548177e-02,-6.222959676988441130e-02,-6.123252410064430190e-02,-6.036345861322316847e-02,-5.955407753770265017e-02,-5.870290453024947647e-02,-5.768398359495249816e-02,-5.635975381677672119e-02,-5.459691748882256057e-02,-5.228335273608759187e-02,-4.934362082505354408e-02,-4.575057355341943105e-02,-4.153130864120607724e-02,-3.676666254662673550e-02,-3.158411712173301439e-02,-2.614516990722846879e-02,-2.062963520825912903e-02,-1.521958156406800003e-02,-1.008475901530801223e-02,-5.370592049032694125e-03,-1.189156067006536411e-03,2.387160175511500882e-03,5.329554466695019671e-03,7.653574560042235471e-03,9.415534575254834795e-03,1.070403751636175155e-02,1.162741916672472078e-02,1.229948209328240831e-02,1.282684295197170782e-02,1.330065577688987165e-02,1.379360846906814084e-02,1.436071323773220089e-02,1.504065546805845310e-02,1.585514351848114900e-02,1.680665290058316538e-02,1.787708952490276240e-02,1.902956020395596762e-02,2.021412575264789138e-02,2.137698906019796369e-02,2.247046636795465430e-02,2.345973224633981710e-02,2.432416462401129631e-02,2.505472064640815524e-02,2.565029655551473095e-02,2.611511075122040226e-02,2.645811570930436604e-02,2.669458041899622561e-02,2.684855955261003166e-02,2.695388382578732187e-02,2.705150139715060964e-02,2.718217449625820459e-02,2.737536204977138177e-02,2.763719737522235542e-02,2.794158990953371502e-02,2.822773271105534151e-02,2.840530591627314985e-02,2.836664819438468668e-02,2.800361984236741583e-02,2.722604812168347849e-02,2.597902419962137832e-02,2.425767993903800782e-02,2.211882404608984942e-02,1.968754047817851058e-02,1.715484007498711480e-02,1.476295327146849579e-02,1.277841806376947206e-02,1.145655710455743131e-02,1.100235577352383191e-02,1.153385082492086253e-02,1.305545402196574625e-02,1.544738134275260022e-02,1.847305914279794362e-02,2.180283752085929519e-02,2.505132906645598373e-02,2.782479818036137295e-02,2.977268628756478755e-02,3.063503873178877179e-02,3.027725339652485859e-02,2.870560308093412019e-02,2.606069418937185037e-02,2.259084427742338516e-02,1.861225255772726989e-02,1.446531724732235367e-02,1.047495972933037110e-02,6.919192680897019547e-03,4.007263163666593790e-03,1.867121394456996812e-03,5.411037085351422596e-04,-1.140550761304413114e-05,9.484958856309134317e-05,6.851011259934862863e-04,1.542112668140236276e-03,2.424633150233039807e-03,3.085083224971912810e-03,3.286718979423337676e-03,2.821060303973302059e-03,1.524688645248845845e-03,-7.071931172460375892e-04,-3.912650074544532161e-03,-8.060632161859244624e-03,-1.305308244176253858e-02,-1.873038716836461504e-02,-2.488050102317962767e-02,-3.125339096550387719e-02,-3.758165231379863996e-02,-4.360539018244455334e-02,-4.909713262417622626e-02,-5.388219288545565561e-02,-5.785112793534042536e-02,-6.096298988170867350e-02,-6.324007794940626759e-02,-6.475617289944995969e-02,-6.562094367500247161e-02,-6.596350563075117912e-02,-6.591762461921588101e-02,-6.560994914822913804e-02,-6.515164512520495166e-02,-6.463317657003450623e-02,-6.412151993104871217e-02,-6.365898014950586992e-02,-6.326314685545286753e-02,-6.292783860045485234e-02,-6.262488468327544189e-02,-6.230695551904654600e-02,-6.191239408746414957e-02,-6.137302927336846237e-02,-6.062478220606092733e-02,-5.961928376058005935e-02,-5.833384604398064721e-02,-5.677758395089048393e-02,-5.499296408635528238e-02,-5.305381599828488948e-02,-5.106210465477062366e-02,-4.914567932760322000e-02,-4.745741103559292934e-02,-4.617350006532125462e-02,-4.548715874678589677e-02,-4.559494395977831821e-02,-4.667631094662636621e-02,-4.886998242372725398e-02,-5.225159969018310785e-02,-5.681634157162376852e-02,-6.246918440394937100e-02,-6.902495332838257114e-02,-7.621985006773572546e-02,-8.373452304215923958e-02,-9.122571828546992279e-02,-9.836049040325060833e-02,-1.048451467154615790e-01,-1.104411801607792371e-01,-1.149629725176158357e-01,-1.182566168708153453e-01,-1.201640485572157829e-01,-1.204801999711457849e-01,-1.189129278888130248e-01,-1.150560337510454639e-01,-1.083837073945572160e-01,-9.827003672287755454e-02,-8.403216397126030135e-02,-6.499177025247615536e-02,-4.054640673956395186e-02,-1.024080918549423631e-02,2.616968187553496070e-02,6.866818260284793252e-02,1.169408932301407439e-01,1.703599423958132852e-01,2.279857044829294577e-01,2.885883414827691285e-01,3.506884944869607668e-01,4.126177269447475204e-01,4.725977266922145037e-01,5.288340238620082845e-01,5.796187823555508656e-01,6.234383574675301798e-01,6.590804897417130714e-01,6.857313037469719985e-01,7.030471856284238319e-01,0.000000000000000000e+00,0.000000000000000000e+00,0.000000000000000000e+00,0.000000000000000000e+00,0.000000000000000000e+00,0.000000000000000000e+00,0.000000000000000000e+00,0.000000000000000000e+00,0.000000000000000000e+00,0.000000000000000000e+00,0.000000000000000000e+00,0.000000000000000000e+00,0.000000000000000000e+00,0.000000000000000000e+00,0.000000000000000000e+00,0.000000000000000000e+00,0.000000000000000000e+00,0.000000000000000000e+00,0.000000000000000000e+00,0.000000000000000000e+00,0.000000000000000000e+00,0.000000000000000000e+00,0.000000000000000000e+00,0.000000000000000000e+00,0.000000000000000000e+00,0.000000000000000000e+00,0.000000000000000000e+00,0.000000000000000000e+00,0.000000000000000000e+00,0.000000000000000000e+00,0.000000000000000000e+00,0.000000000000000000e+00,0.000000000000000000e+00,0.000000000000000000e+00,0.000000000000000000e+00,0.000000000000000000e+00,0.000000000000000000e+00,0.000000000000000000e+00,0.000000000000000000e+00,0.000000000000000000e+00,0.000000000000000000e+00,0.000000000000000000e+00,0.000000000000000000e+00,0.000000000000000000e+00,0.000000000000000000e+00,0.000000000000000000e+00,0.000000000000000000e+00,0.000000000000000000e+00,0.000000000000000000e+00,0.000000000000000000e+00,0.000000000000000000e+00,0.000000000000000000e+00,0.000000000000000000e+00,0.000000000000000000e+00,0.000000000000000000e+00,0.000000000000000000e+00,0.000000000000000000e+00,0.000000000000000000e+00,0.000000000000000000e+00,0.000000000000000000e+00,0.000000000000000000e+00,0.000000000000000000e+00,0.000000000000000000e+00,0.000000000000000000e+00,0.000000000000000000e+00,0.000000000000000000e+00,0.000000000000000000e+00,0.000000000000000000e+00,0.000000000000000000e+00,0.000000000000000000e+00,0.000000000000000000e+00,0.000000000000000000e+00,0.000000000000000000e+00,0.000000000000000000e+00,0.000000000000000000e+00,0.000000000000000000e+00,0.000000000000000000e+00,0.000000000000000000e+00,0.000000000000000000e+00,0.000000000000000000e+00,0.000000000000000000e+00,0.000000000000000000e+00,0.000000000000000000e+00,0.000000000000000000e+00,0.000000000000000000e+00,0.000000000000000000e+00,0.000000000000000000e+00,0.000000000000000000e+00,0.000000000000000000e+00,0.000000000000000000e+00,0.000000000000000000e+00,0.000000000000000000e+00,0.000000000000000000e+00,0.000000000000000000e+00,0.000000000000000000e+00,0.000000000000000000e+00,0.000000000000000000e+00,0.000000000000000000e+00,0.000000000000000000e+00,0.000000000000000000e+00,0.000000000000000000e+00,0.000000000000000000e+00,0.000000000000000000e+00,0.000000000000000000e+00,0.000000000000000000e+00,0.000000000000000000e+00,0.000000000000000000e+00,0.000000000000000000e+00,0.000000000000000000e+00,0.000000000000000000e+00,0.000000000000000000e+00,0.000000000000000000e+00,0.000000000000000000e+00,0.000000000000000000e+00,0.000000000000000000e+00,0.000000000000000000e+00,0.000000000000000000e+00,0.000000000000000000e+00,0.000000000000000000e+00,0.000000000000000000e+00,0.000000000000000000e+00,0.000000000000000000e+00,0.000000000000000000e+00,0.000000000000000000e+00,0.000000000000000000e+00,0.000000000000000000e+00,0.000000000000000000e+00,0.000000000000000000e+00,0.000000000000000000e+00,0.000000000000000000e+00,0.000000000000000000e+00,0.000000000000000000e+00,0.000000000000000000e+00,0.000000000000000000e+00,0.000000000000000000e+00,0.000000000000000000e+00,0.000000000000000000e+00,0.000000000000000000e+00,0.000000000000000000e+00,0.000000000000000000e+00,0.000000000000000000e+00,0.000000000000000000e+00,0.000000000000000000e+00,0.000000000000000000e+00,0.000000000000000000e+00,0.000000000000000000e+00,0.000000000000000000e+00,0.000000000000000000e+00,0.000000000000000000e+00,0.000000000000000000e+00,0.000000000000000000e+00,0.000000000000000000e+00,0.000000000000000000e+00,0.000000000000000000e+00,0.000000000000000000e+00,0.000000000000000000e+00,0.000000000000000000e+00,0.000000000000000000e+00,0.000000000000000000e+00,0.000000000000000000e+00,0.000000000000000000e+00,0.000000000000000000e+00,0.000000000000000000e+00,0.000000000000000000e+00,0.000000000000000000e+00,0.000000000000000000e+00,0.000000000000000000e+00
