6.365967080523835531e-01,6.293924781753056363e-01,6.137434688776544078e-01,5.909845487028871913e-01,5.626033655039015535e-01,5.301237343272577895e-01,4.950100197061401697e-01,4.585925204103513675e-01,4.220118932448378435e-01,3.861832686417544513e-01,3.517817645240474134e-01,3.192497555155037192e-01,2.888238249499050503e-01,2.605755887785676794e-01,2.344580647578141108e-01,2.103510327294249582e-01,1.881022125370979958e-01,1.675616511644828499e-01,1.486051266395990722e-01,1.311426037234938169e-01,1.151114641438016062e-01,1.004590511319508328e-01,8.712165264294981226e-02,7.500652006363939250e-02,6.398139653382094172e-02,5.387357718182086280e-02,4.447796460064663837e-02,3.557159111391521022e-02,2.693197047889719919e-02,1.835810790253370253e-02,9.693298662642454294e-03,8.463718143769201254e-04,-8.194742547040853239e-03,-1.736266852789106196e-02,-2.652435756386635826e-02,-3.550384933802452209e-02,-4.410608445103739172e-02,-5.213673806434216546e-02,-5.941824773051521819e-02,-6.580437448354613250e-02,-7.119405906209363977e-02,-7.554294908352295057e-02,-7.886988500736281937e-02,-8.125602406080001394e-02,-8.283568779848045349e-02,-8.378008650944893110e-02,-8.427701225648767669e-02,-8.451018904541207633e-02,-8.464111862811518616e-02,-8.479528336341222994e-02,-8.505415735003801769e-02,-8.545402409541143218e-02,-8.599169712331210247e-02,-8.663576822140026112e-02,-8.734002597076193086e-02,-8.805482814143329728e-02,-8.873424430902013271e-02,-8.934007139776142803e-02,-8.984487258549719857e-02,-9.023459350320754691e-02,-9.050962380241314720e-02,-9.068302763005130218e-02,-9.077570461683072411e-02,-9.080945231685946806e-02,-9.079989848950494047e-02,-9.075223556672284975e-02,-9.066256108843848138e-02,-9.052480009282574958e-02,-9.033923523041209602e-02,-9.011776581349244253e-02,-8.988407554955511747e-02,-8.966999884443567492e-02,-8.950976508569052914e-02,-8.943321270786762367e-02,-8.945952163943408919e-02,-8.959352547061225081e-02,-8.982560817491529181e-02,-9.013433433969432473e-02,-9.049033295057393178e-02,-9.086045556388831768e-02,-9.121134730841840010e-02,-9.151174840959373780e-02,-9.173417852368784264e-02,-9.185761539852789481e-02,-9.187149585029827370e-02,-9.177938180234278265e-02,-9.160048984957733231e-02,-9.136862626125430431e-02,-9.112905611856093879e-02,-9.093396050395145813e-02,-9.083699750002452444e-02,-9.088751508208199603e-02,-9.112511316838463327e-02,-9.157531055335998982e-02,-9.224697660998672222e-02,-9.313179594143213003e-02,-9.420530701285137476e-02,-9.542862146525610267e-02,-9.675031110847361060e-02,-9.810868200617761659e-02,-9.943509073884741756e-02,-1.006588525509890253e-01,-1.017134877619780275e-01,-1.025429144754895772e-01,-1.031058933975378816e-01,-1.033781046961115280e-01,-1.033525761632831941e-01,-1.030394474450660180e-01,-1.024653047178387677e-01,-1.016715987759934242e-01,-1.007116182224604278e-01,-9.964591340897445415e-02,-9.853660284725797303e-02,-9.744148574321027934e-02,-9.640883796488924906e-02,-9.547295562429938820e-02,-9.465006004517613480e-02,-9.393515332446378263e-02,-9.330170498172613014e-02,-9.270567343203614530e-02,-9.209337944712808754e-02,-9.141104697059714013e-02,-9.061345229780456978e-02,-8.966966157969155637e-02,-8.856509200538863202e-02,-8.730097647965161245e-02,-8.589320130070454695e-02,-8.437118262202843166e-02,-8.277562801612318999e-02,-8.115416862023730471e-02,-7.955571141787777523e-02,-7.802570662991069328e-02,-7.660399127810729736e-02,-7.532510756322884082e-02,-7.421950469018674668e-02,-7.331362940044104659e-02,-7.262759908175453472e-02,-7.217071539605166008e-02,-7.193681835149162707e-02,-7.190203931166598561e-02,-7.202628647232947601e-02,-7.225802913321939525e-02,-7.254110359059279256e-02,-7.282216469696063676e-02,-7.305725725935986736e-02,-7.321600753295873232e-02,-7.328257703513245402e-02,-7.325352988824453127e-02,-7.313382647291409577e-02,-7.293273390394235112e-02,-7.266089155835001034e-02,-7.232876685778039105e-02,-7.194649611280486134e-02,-7.152523767483752459e-02,-7.107955636566112845e-02,-7.062925099282946206e-02,-7.019870087495161393e-02,-6.981296760459690387e-02,-6.949204389032950790e-02,-6.924625995075854579e-02,-6.907542993861519320e-02,-6.897209713370529294e-02,-6.892724276401289429e-02,-6.893638516085966172e-02,-6.900446499645164489e-02,-6.914837894791858730e-02,-6.939659297744286970e-02,-6.978600092240133668e-02,-7.035660192150207382e-02,-7.114468034365978300e-02,-7.217554697578376643e-02,-7.345739151949373658e-02,-7.497755094064384451e-02,-7.670144828816437277e-02,-7.857364793928657554e-02,-8.052046420771084845e-02,-8.245396780503759515e-02,-8.427782238410828908e-02,-8.589571580794222450e-02,-8.722221889611621315e-02,-8.819394498503600743e-02,-8.877793648526750847e-02,-8.897537707585535804e-02,-8.882050314216133335e-02,-8.837522887642554337e-02,-8.772014025860731812e-02,-8.694348812438873475e-02,-8.613078408061194957e-02,-8.535690805568540984e-02,-8.468098234792709178e-02,-8.414379354208502415e-02,-8.376808184803839763e-02,-8.356132379777414521e-02,-8.351879392241591538e-02,-8.362467624831720903e-02,-8.385150566927043747e-02,-8.416013664649203696e-02,-8.450185378364960531e-02,-8.482280382179481493e-02,-8.507034769864028900e-02,-8.520064361728073299e-02,-8.518589225264591724e-02,-8.501893793872646043e-02,-8.471348802191699945e-02,-8.429995558939519518e-02,-8.381881560625638328e-02,-8.331427596920609746e-02,-8.283021018874318908e-02,-8.240823402103193696e-02,-8.208644455717044319e-02,-8.189771803826663421e-02,-8.186762044744748390e-02,-8.201263546955099570e-02,-8.233922947988199514e-02,-8.284355897425860205e-02,-8.351105394754806954e-02,-8.431533613448081999e-02,-8.521689801260021180e-02,-8.616292581093909497e-02,-8.708975648609292020e-02,-8.792840546871294460e-02,-8.861208951051138816e-02,-8.908390043706827799e-02,-8.930314786352341883e-02,-8.924976587522363836e-02,-8.892683130103948286e-02,-8.836136056636662017e-02,-8.760330427258831987e-02,-8.672228112786521670e-02,-8.580142855462842555e-02,-8.492842614760898190e-02,-8.418523093123617129e-02,-8.363930558458324005e-02,-8.333904222524426975e-02,-8.331425786820614854e-02,-8.358002071585454718e-02,-8.414090157785727997e-02,-8.499399591367313989e-02,-8.613079290884703698e-02,-8.753830923406016873e-02,-8.919975252302453361e-02,-9.109540464865110987e-02,-9.320448255097760204e-02,-9.550780978675563193e-02,-9.799017606731935670e-02,-1.006412524473000170e-01,-1.034549198536710152e-01,-1.064280090067060563e-01,-1.095594679240889796e-01,-1.128497241234684839e-01,-1.162990171552627794e-01,-1.199039314942632189e-01,-1.236527310553789116e-01,-1.275211652064115742e-01,-1.314704143944661896e-01,-1.354478157823891249e-01,-1.393897974837519094e-01,-1.432258881026343689e-01,-1.468828519031406543e-01,-1.502886436902149403e-01,-1.533764812046797543e-01,-1.560891998511048651e-01,-1.583833724677591315e-01,-1.602324421387906483e-01,-1.616285766386852119e-01,-1.625836287091135257e-01,-1.631298126507840229e-01,-1.633198694959809016e-01,-1.632253857571225597e-01,-1.629322353536206414e-01,-1.625335948440881084e-01,-1.621219160938789094e-01,-1.617812187252276324e-01,-1.615807913120457517e-01,-1.615709480742822668e-01,-1.617807238513904178e-01,-1.622168753148839349e-01,-1.628639154744163930e-01,-1.636856672946485070e-01,-1.646287902784750179e-01,-1.656278393272086202e-01,-1.666110480715634612e-01,-1.675066808890483816e-01,-1.682501104874755682e-01,-1.687909791598276310e-01,-1.690990251949667511e-01,-1.691673407580959465e-01,-1.690122875467638397e-01,-1.686695043783967563e-01,-1.681862095853130512e-01,-1.676115906035805514e-01,-1.669881017029297421e-01,-1.663458262733085724e-01,-1.657002507566716631e-01,-1.650521857087478006e-01,-1.643881948978364038e-01,-1.636808792232184728e-01,-1.628895237137648333e-01,-1.619619080857741533e-01,-1.608380760779646312e-01,-1.594567446750154438e-01,-1.577637037389330310e-01,-1.557198728577916802e-01,-1.533070309169343171e-01,-1.505310181260166302e-01,-1.474230122290461631e-01,-1.440391430472306167e-01,-1.404583619901540181e-01,-1.367783362463933783e-01,-1.331090065049020943e-01,-1.295634943824940100e-01,-1.262466434669760329e-01,-1.232426472292125347e-01,-1.206042399167335938e-01,-1.183458679274412562e-01,-1.164418484700465717e-01,-1.148287873699147255e-01,-1.134111458904924069e-01,-1.120699032458103706e-01,-1.106747945345488982e-01,-1.090993344461497760e-01,-1.072359777487096461e-01,-1.050083098960120087e-01,-1.023784380755645984e-01,-9.934951112980469623e-02,-9.596435682335550943e-02,-9.230130958743963665e-02,-8.846779587049105609e-02,-8.459175787514856826e-02,-8.081108442976794870e-02,-7.726200216428982803e-02,-7.406813963225686304e-02,-7.133175076550450633e-02,-6.912744650487562259e-02,-6.749774039141788473e-02,-6.644963625047076161e-02,-6.595254974892152122e-02,-6.593910405887680459e-02,-6.631030769079333809e-02,-6.694521684894821911e-02,-6.771367340566554482e-02,-6.848986898410065749e-02,-6.916424244619516493e-02,-6.965162492286068596e-02,-6.989480445655510410e-02,-6.986435887782546650e-02,-6.955663451610723247e-02,-6.899122719151117022e-02,-6.820759800679654372e-02,-6.725959802484321459e-02,-6.620794922598759180e-02,-6.511213236166821239e-02,-6.402274679049858863e-02,-6.297484500743573410e-02,-6.198352965965472222e-02,-6.104337995433256614e-02,-6.013162215462092980e-02,-5.921347699813161308e-02,-5.824857135875337322e-02,-5.719810084131973088e-02,-5.603202221023483726e-02,-5.473490228303979493e-02,-5.330918295339787116e-02,-5.177519803960155265e-02,-5.016809013562285868e-02,-4.853296821535152406e-02,-4.692049237387430072e-02,-4.538451711350678652e-02,-4.398168242431438335e-02,-4.277139187557592315e-02,-4.181457797750370853e-02,-4.117057005316136081e-02,-4.089220591560098483e-02,-4.101992748952020679e-02,-4.157606986752233197e-02,-4.256048266277187575e-02,-4.394801552522592525e-02,-4.568782263008858147e-02,-4.770418148032771338e-02,-4.989870698385379111e-02,-5.215457424130830189e-02,-5.434385124494825470e-02,-5.633800072427037897e-02,-5.801955645817307577e-02,-5.929229270238611099e-02,-6.008866226000610794e-02,-6.037467528927175503e-02,-6.015197050067231516e-02,-5.945589033006460494e-02,-5.834895923131107331e-02,-5.691094330485198943e-02,-5.522772094864254744e-02,-5.338097122388982263e-02,-5.144025278336142315e-02,-4.945870736149577535e-02,-4.747265007256201014e-02,-4.550387891887829744e-02,-4.356291285333934588e-02,-4.165217201622137960e-02,-3.976930307454155239e-02,-3.791103586832844652e-02,-3.607736372040808853e-02,-3.427543317397026279e-02,-3.252222220801653796e-02,-3.084486154775743436e-02,-2.927817995750498642e-02,-2.786051215234550474e-02,-2.662939290036638040e-02,-2.561799317180319877e-02,-2.485231100791086140e-02,-2.434912890954120043e-02,-2.411494891420370643e-02,-2.414567722984399534e-02,-2.442623676966275414e-02,-2.492945293841836510e-02,-2.561434084078723430e-02,-2.642461481756531658e-02,-2.728855325686982414e-02,-2.812129789551421483e-02,-2.883018207076874090e-02,-2.932269705217024902e-02,-2.951565302342156263e-02,-2.934374409680414603e-02,-2.876625124686913587e-02,-2.777149155223959318e-02,-2.637906290829436506e-02,-2.463941028968389887e-02,-2.262969492022203280e-02,-2.044594910291459844e-02,-1.819331067093488477e-02,-1.597658172405194699e-02,-1.389239368107419124e-02,-1.202337651434862847e-02,-1.043427175849494064e-02,-9.169491901060936034e-03,-8.251315008451578364e-03,-7.678025395452699013e-03,-7.422079370991465676e-03,-7.429571045704064063e-03,-7.622798120306219054e-03,-7.906790151806673481e-03,-8.179113153872499820e-03,-8.341184961142845619e-03,-8.308799366650528040e-03,-8.019865074841014616e-03,-7.438853398906783085e-03,-6.559028159040141900e-03,-5.403600994429764819e-03,-4.025159957322445650e-03,-2.500847856755155155e-03,-9.217304971656122264e-04,6.214388866569787225e-04,2.051258373987776325e-03,3.311839446788394925e-03,4.371548813315769173e-03,5.222211998574532131e-03,5.877019831023416567e-03,6.367897877211337390e-03,6.741641286655706590e-03,7.054337608163957496e-03,7.364852866295302711e-03,7.728739728819818827e-03,8.193326077593673581e-03,8.793840147404294316e-03,9.550229744631379483e-03,1.046472060006119371e-02,1.152040669721632500e-02,1.268131740093831998e-02,1.389470522647879257e-02,1.509619816024800401e-02,1.621760408334235737e-02,1.719600820326775206e-02,1.798201079135151176e-02,1.854512258026033006e-02,1.887561338156870314e-02,1.898363069919602186e-02,1.889714410495260677e-02,1.866000388421031747e-02,1.833042325352609789e-02,1.797897041697753967e-02,1.768458835170114499e-02,1.752799063433357549e-02,1.758333339576012219e-02,1.790990095171212174e-02,1.854526054090888110e-02,1.950055150541394125e-02,2.075800260360608981e-02,2.227084755155646356e-02,2.396627920279075299e-02,2.575207215426196863e-02,2.752642984622784977e-02,2.918922409920321134e-02,3.065252457356182347e-02,3.184914886596286465e-02,3.273867961852208047e-02,3.331065767765879065e-02,3.358476853417022290e-02,3.360774902522272595e-02,3.344671703883460301e-02,3.317931141083040741e-02,3.288240446885017793e-02,3.262214847046845945e-02,3.244759944128131762e-02,3.238837583312659252e-02,3.245522015176308117e-02,3.264192239848657390e-02,3.292769455118883110e-02,3.328015567706229388e-02,3.365979612040438662e-02,3.402634692892107793e-02,3.434608029305404042e-02,3.459799527324310814e-02,3.477701975134456919e-02,3.489348439995373224e-02,3.496943635370199088e-02,3.503329991131184928e-02,3.511452055219645152e-02,3.523914862587495395e-02,3.542652324986241691e-02,3.568694249733493640e-02,3.602044457694703050e-02,3.641707193237828794e-02,3.685866513165309000e-02,3.732147772180630096e-02,3.777868536787018505e-02,3.820239190999788481e-02,3.856496366651184643e-02,3.883937996854551489e-02,3.899898197006383682e-02,3.901810561722702381e-02,3.887467669050065355e-02,3.855396649458273789e-02,3.805147764728332438e-02,3.737352739856803635e-02,3.653582605956778168e-02,3.556169406113533771e-02,3.448119509937929567e-02,3.333079644485278936e-02,3.215230442610413075e-02,3.099059174852509049e-02,2.989060941726416620e-02,2.889420747329228892e-02,2.803680091849862499e-02,2.734372949264942537e-02,2.682647084952132638e-02,2.647938592493142423e-02,2.627807840915800247e-02,2.618049195439024063e-02,2.613139263036065238e-02,2.607004035774662318e-02,2.593998841363459248e-02,2.569924492448934228e-02,2.532844775710820992e-02,2.483436345109146098e-02,2.424700516975314066e-02,2.361178097583684424e-02,2.298091420463538315e-02,2.240763575799237933e-02,2.194341381167952063e-02,2.163635032292976490e-02,2.152900199491160349e-02,2.165514596632697741e-02,2.203610477828805633e-02,2.267746836260753351e-02,2.356664536492965312e-02,2.467145690433505262e-02,2.594025900384322111e-02,2.730427790512692313e-02,2.868244921276202897e-02,2.998835700314284730e-02,3.113840411832298830e-02,3.206028049768652050e-02,3.270097282563312613e-02,3.303352499905174572e-02,3.306133252415843077e-02,3.281869726108209429e-02,3.236724725802476305e-02,3.178869579453558192e-02,3.117456066864673220e-02,3.061386945751229730e-02,3.018096189023317805e-02,2.992602100698527751e-02,2.987023955359653996e-02,3.000615055750416316e-02,3.030220341819293492e-02,3.070961611518347942e-02,3.116948571019276595e-02,3.161911672420485153e-02,3.199768429927610930e-02,3.225172660978784661e-02,3.234035949290980233e-02,3.223935491648446255e-02,3.194323313876686748e-02,3.146512660028068231e-02,3.083473191652105760e-02,3.009497996938861192e-02,2.929799650668137717e-02,2.850046006435736842e-02,2.775824365684569431e-02,2.712081792087334131e-02,2.662666562007361126e-02,2.630074709066579711e-02,2.615394825945450280e-02,2.618386008714776100e-02,2.637661802480746262e-02,2.670970697266498300e-02,2.715521976220392972e-02,2.768289872116005620e-02,2.826254676652908970e-02,2.886548087683823288e-02,2.946464324344879454e-02,3.003326616672352331e-02,3.054273092853844462e-02,3.096112316440598547e-02,3.125403440995735277e-02,3.138766984481849293e-02,3.133268370782107265e-02,3.106756033852637461e-02,3.058189081571312945e-02,2.987976637067361191e-02,2.898210688356201922e-02,2.792676460765817006e-02,2.676649484941812096e-02,2.556530258760866120e-02,2.439346214846638966e-02,2.332171966485335410e-02,2.241550701735902512e-02,2.173001651028547143e-02,2.130678967549634248e-02,2.117208770291188757e-02,2.133691422660280446e-02,2.179840395565716890e-02,2.254217487587661939e-02,2.354485020783513016e-02,2.477576130271483615e-02,2.619759173018877327e-02,2.776689025738413724e-02,2.943557096278007212e-02,3.115347244965271933e-02,3.287105769532587540e-02,3.454155426836220261e-02,3.612279804728293908e-02,3.757932141862219133e-02,3.888440429248513075e-02,4.002101347092622274e-02,4.098076897235641836e-02,4.176110071141257707e-02,4.236198859259365790e-02,4.278431165611092796e-02,4.303107462654832266e-02,4.311106415231373556e-02,4.304319098230147828e-02,4.285952570957042573e-02,4.260553755355544342e-02,4.233700679918298709e-02,4.211418772291283114e-02,4.199447505316290796e-02,4.202489160163368903e-02,4.223558623335262746e-02,4.263542301147540264e-02,4.321049715694782328e-02,4.392604794367431509e-02,4.473172189278828981e-02,4.556924749362272625e-02,4.638074085990782219e-02,4.711585632474652591e-02,4.773663433746860862e-02,4.821962022337052123e-02,4.855567732636519723e-02,4.874855279484459347e-02,4.881300671704518618e-02,4.877265248970667766e-02,4.865757394242879730e-02,4.850223418915796531e-02,4.834431692090473964e-02,4.822455504794370684e-02,4.818683212210497085e-02,4.827759487130642291e-02,4.854394694528929577e-02,4.903026718605078826e-02,4.977359388076589564e-02,5.079844817611825492e-02,5.211215494142015792e-02,5.370172903962360661e-02,5.553294335831339412e-02,5.755153669422083396e-02,5.968609356718353881e-02,6.185233377601835614e-02,6.395904128657621535e-02,6.591573083002726097e-02,6.764124501270461776e-02,6.907158159605659986e-02,7.016517819242235054e-02,7.090481685857184802e-02,7.129660233920358248e-02,7.136718366948929804e-02,7.116024947834138914e-02,7.073278497112366059e-02,7.015115276856104254e-02,6.948689523503850940e-02,6.881211020763039476e-02,6.819421533610517394e-02,6.769005672614342162e-02,6.733984239949519779e-02,6.716200019380259845e-02,6.715018030496984480e-02,6.727314720018434668e-02,6.747782641257508984e-02,6.769559666704745571e-02,6.785132117997462464e-02,6.787341546540033577e-02,6.770288686894351815e-02,6.730024736723337619e-02,6.664995623264528823e-02,6.576194577661738372e-02,6.466997481351015320e-02,6.342734244993487869e-02,6.210070148433280424e-02,6.076219979852687247e-02,5.948030613708977371e-02,5.831069194703961123e-02,5.728903137489376601e-02,5.642688749132863946e-02,5.571093263829137582e-02,5.510537988193742881e-02,5.455737293919946107e-02,5.400486116230934081e-02,5.338622303071575287e-02,5.265047921732188274e-02,5.176632732368762618e-02,5.072798110648995412e-02,4.955641557944607395e-02,4.829581427720171238e-02,4.700615445256153130e-02,4.575367599654217576e-02,4.460125237283686650e-02,4.360016153728241139e-02,4.278383660689388107e-02,4.216382815293902298e-02,4.172867720832813127e-02,4.144646703632358375e-02,4.127037450832156396e-02,4.114486684727276106e-02,4.101067678004696043e-02,4.080900304328281131e-02,4.048668752071817728e-02,4.000288893974286025e-02,3.933523179387576896e-02,3.848225170919628013e-02,3.746103657729816377e-02,3.630250505353981721e-02,3.504761651810442413e-02,3.374526024486185910e-02,3.245029256291940417e-02,3.122034864241565386e-02,3.011120183227148847e-02,2.917115843735640368e-02,2.843553161601599169e-02,2.792283691384673042e-02,2.763418153795157983e-02,2.755589453072414610e-02,2.766376969143072989e-02,2.792680307336651430e-02,2.830922221520122337e-02,2.877095160125201986e-02,2.926740565989299422e-02,2.974937711852932570e-02,3.016346646815629487e-02,3.045369541357393836e-02,3.056512382131200758e-02,3.044945426902677388e-02,3.007128430544074235e-02,2.941322256128845597e-02,2.847876038503293836e-02,2.729288056741552629e-02,2.590116323800661230e-02,2.436798404242205424e-02,2.277344519938660078e-02,2.120824479153177178e-02,1.976648358076079151e-02,1.853734193023772597e-02,1.759660336463540406e-02,1.699881882441254405e-02,1.677114634478609270e-02,1.690969729188923631e-02,1.737821309089187041e-02,1.810842570726567055e-02,1.900217141699843404e-02,1.993612785242302940e-02,2.076986318844821489e-02,2.135680946922710252e-02,2.155675663797364944e-02,2.124841462407531245e-02,2.034130293234593517e-02,1.878649986467549257e-02,1.658496456467157404e-02,1.379124026366946275e-02,1.051076545384295804e-02,6.890609952687519815e-03,3.105027258919003212e-03,-6.617785981419452811e-04,-4.232930439953809694e-03,-7.454031713383529184e-03,-1.020520164633568518e-02,-1.240978771950583537e-02,-1.403949251118623114e-02,-1.511525664136119211e-02,-1.570337267393323230e-02,-1.590706803914613415e-02,-1.585429936613790697e-02,-1.568264202668206292e-02,-1.552298589206081193e-02,-1.548504041218867582e-02,-1.564771731744174152e-02,-1.605559420610871632e-02,-1.672007118595638525e-02,-1.762256941184325507e-02,-1.871820953641952986e-02,-1.994069235148792849e-02,-2.121032954421422229e-02,-2.244600167011320466e-02,-2.357896189556843089e-02,-2.456418803566748701e-02,-2.538553305404104773e-02,-2.605401965800642483e-02,-2.660137288831934677e-02,-2.707105781611160791e-02,-2.750815676937204760e-02,-2.794976604608132367e-02,-2.841860799314967559e-02,-2.892192040284172205e-02,-2.945493202309324571e-02,-3.000569024007411489e-02,-3.055813518922574981e-02,-3.109266446522909733e-02,-3.158553269251021534e-02,-3.200894864162837083e-02,-3.233301849801518274e-02,-3.252936159996124010e-02,-3.257515331108419565e-02,-3.245645461616689792e-02,-3.217057719053056930e-02,-3.172761396812239648e-02,-3.115083238127944881e-02,-3.047529879509082440e-02,-2.974461900715819410e-02,-2.900652222761552351e-02,-2.830818006358835903e-02,-2.769168860716625033e-02,-2.718990350662396638e-02,-2.682310280608943623e-02,-2.659718992715050592e-02,-2.650375079496230038e-02,-2.652146635191848095e-02,-2.661781504523660566e-02,-2.675015249603345663e-02,-2.686632980499163367e-02,-2.690621101444336596e-02,-2.680531700939746756e-02,-2.650048359820694061e-02,-2.593643633544143179e-02,-2.507212845842849216e-02,-2.388593971307913580e-02,-2.237899040612303242e-02,-2.057612869827047872e-02,-1.852480092905698858e-02,-1.629239981942140481e-02,-1.396214699856223110e-02,-1.162692233265013621e-02,-9.381031258981136628e-03,-7.311319540952933640e-03,-5.489817304852785511e-03,-3.969630837549011949e-03,-2.784432152017385538e-03,-1.950309300028510613e-03,-1.467945620305341177e-03,-1.323675250118172553e-03,-1.489383217044502319e-03,-1.922395997921017875e-03,-2.566738325095716672e-03,-3.356473406663076486e-03,-4.220888875839367074e-03,-5.090627949893727390e-03,-5.903735110282641758e-03,-6.610858782307902325e-03,-7.179136175222580393e-03,-7.594315189893370045e-03,-7.860604473437121306e-03,-7.997971300655208615e-03,-8.037410025760650598e-03,-8.015528269702983100e-03,-7.969553836858430523e-03,-7.932920352829095356e-03,-7.931328301943024045e-03,-7.979551058108279998e-03,-8.079433161268264815e-03,-8.219599147028203157e-03,-8.377523899481315386e-03,-8.524307930302257169e-03,-8.631528765163093767e-03,-8.678500999556250720e-03,-8.657908941587263638e-03,-8.578317527011639423e-03,-8.463195799527917576e-03,-8.347071722087933895e-03,-8.269898335881252852e-03,-8.270978029075299470e-03,-8.383789970170201986e-03,-8.632399567732127604e-03,-9.029499854776426582e-03,-9.576254868390452618e-03,-1.026410730618458438e-02,-1.107786964169589494e-02,-1.199865533101474209e-02,-1.300536713997482892e-02,-1.407425351676076276e-02,-1.517697223264284981e-02,-1.627829061830063720e-02,-1.733471396657386421e-02,-1.829514067229875626e-02,-1.910428267508553629e-02,-1.970882084548634255e-02,-2.006516050238781740e-02,-2.014680308340072515e-02,-1.994928368798891405e-02,-1.949160254386590393e-02,-1.881454607628104195e-02,-1.797686448752758293e-02,-1.704963774801521864e-02,-1.610887286492453802e-02,-1.522734057571049904e-02,-1.446747356476947750e-02,-1.387643694067204440e-02,-1.348310799460654928e-02,-1.329619515664768291e-02,-1.330324608592970206e-02,-1.347100575185637868e-02,-1.374770728776842851e-02,-1.406734691090268975e-02,-1.435568482867852561e-02,-1.453812462510769773e-02,-1.454951449944432915e-02,-1.434424710857616636e-02,-1.390352136936628957e-02,-1.323749224904973744e-02,-1.238245343092109901e-02,-1.139476792228462550e-02,-1.034330770589186009e-02,-9.301724799231237545e-03,-8.341789776608148077e-03,-7.528747980313058724e-03,-6.918333766503205993e-03,-6.553996193953815982e-03,-6.463704619248131743e-03,-6.657084648081159663e-03,-7.123537117485801567e-03,-7.831232810591181454e-03,-8.727037225893524361e-03,-9.738171590514875173e-03,-1.077670262243790762e-02,-1.174740469595974245e-02,-1.255818507682418192e-02,-1.313076970712872063e-02,-1.340916479975004343e-02,-1.336487653669052311e-02,-1.299927562043083455e-02,-1.234342811529098166e-02,-1.145486418013241282e-02,-1.041068278701884516e-02,-9.297632097323687422e-03,-8.201330459091750458e-03,-7.197080327622345716e-03,-6.343560983877832328e-03,-5.679416249090525615e-03,-5.222330285862270341e-03,-4.970143853738698443e-03,-4.903509366182133566e-03,-4.989750008308223295e-03,-5.187756826999337899e-03,-5.453540433250432702e-03,-5.745766728540949164e-03,-6.030703271329347984e-03,-6.286288204195035999e-03,-6.505002702008793290e-03,-6.695035944885088797e-03,-6.879491367904460100e-03,-7.093934766789451035e-03,-7.382733839292885888e-03,-7.794293133644119957e-03,-8.375017949826155453e-03,-9.162293110137161717e-03,-1.017775241438576006e-02,-1.142249042358566176e-02,-1.287511460457272869e-02,-1.449239338174990871e-02,-1.621154483797294932e-02,-1.795336167758612364e-02,-1.962629331470546259e-02,-2.113231712144590310e-02,-2.237507000599559329e-02,-2.326975275125930942e-02,-2.375355084296924130e-02,-2.379471442206762197e-02,-2.339805845926259259e-02,-2.260514288876013661e-02,-2.148892159221370279e-02,-2.014433267947857847e-02,-1.867718924716510812e-02,-1.719361885661643830e-02,-1.579156062917808079e-02,-1.455481018192823946e-02,-1.354913890664534784e-02,-1.281978790454165601e-02,-1.239030087251514860e-02,-1.226295459098303980e-02,-1.242020772113790368e-02,-1.282601426911537945e-02,-1.342683517220942709e-02,-1.415374025967492538e-02,-1.492724054417957080e-02,-1.566499437576650278e-02,-1.629077858589259714e-02,-1.674268334955961515e-02,-1.697917733007939245e-02,-1.698241514498409488e-02,-1.675867780424301900e-02,-1.633634113303520166e-02,-1.576201505043266227e-02,-1.509527013339141688e-02,-1.440203710535946889e-02,-1.374697161363438135e-02,-1.318579397229589951e-02,-1.275898144465021158e-02,-1.248786426215455804e-02,-1.237364766946344279e-02,-1.239932670072226364e-02,-1.253383550026812045e-02,-1.273730287998188493e-02,-1.296609106360633971e-02,-1.317648252619644383e-02,-1.332661906076587112e-02,-1.337738586938792308e-02,-1.329362901742659440e-02,-1.304659222993902017e-02,-1.261709857236659182e-02,-1.199806602144697781e-02,-1.119481651409698873e-02,-1.022210243257173218e-02,-9.098144286712765358e-03,-7.837730479456685509e-03,-6.446930510388595992e-03,-4.920815636755267695e-03,-3.244032499841899633e-03,-1.393199934427214988e-03,6.598612924643298570e-04,2.944429809692731843e-03,5.486597837424926453e-03,8.304386950251860244e-03,1.140283133783794034e-02,1.477022694965983429e-02,1.837679763343794820e-02,2.217614161074887152e-02,2.610860790724614869e-02,3.010539971119401831e-02,3.409289810836875489e-02,3.799717448088400090e-02,4.174827074491361395e-02,4.528358098915697544e-02,4.855007175261701058e-02,5.150530790349663879e-02,5.411705928408557659e-02,5.636154278523586303e-02,5.822146169290900314e-02,5.968583518207740829e-02,6.075307748111268696e-02,6.143721822152069245e-02,6.177544619237134577e-02,6.183396760902835909e-02,6.170921016328953512e-02,6.152290401355200999e-02,6.141164042408898960e-02,6.151300230479615772e-02,6.195091878246439948e-02,6.282267512789002639e-02,6.418917487501246688e-02,6.606908578894710171e-02,6.843712297524288946e-02,7.122696059430701221e-02,7.433919628396117030e-02,7.765362411781615015e-02,8.104347930004367206e-02,8.438891487279648329e-02,8.758801611589128733e-02,9.056461732999793179e-02,9.327219644494839923e-02,9.569344734296278410e-02,9.783664895500120140e-02,9.973085415521182329e-02,1.014207680295066555e-01,1.029607712829259808e-01,1.044077392117762904e-01,1.058133137463579815e-01,1.072168757245773318e-01,1.086408877718612054e-01,1.100907136004282416e-01,1.115602965564509580e-01,1.130426035845681493e-01,1.145411384607629562e-01,1.160780527694845049e-01,1.176955726078830339e-01,1.194496490332980498e-01,1.213970254875052640e-01,1.235784870434563365e-01,1.260017058047511185e-01,1.286273455678239030e-01,1.313618829255264742e-01,1.340592452005879842e-01,1.365311970182982726e-01,1.385647230564631960e-01,1.399439030249841898e-01,1.404735838983635909e-01,1.400023783403370192e-01,1.384428350905941574e-01,1.357864306514791342e-01,1.321104369084281915e-01,1.275737743032876736e-01,1.224006470049357059e-01,1.168538274541787297e-01,1.112024346534739860e-01,1.056904121815635117e-01,1.005111336919297937e-01,9.579136189731794759e-02,9.158530555739861911e-02,8.787748043055249036e-02,8.459216019737797465e-02,8.160772315915500175e-02,7.877484078589289118e-02,7.593663550321270994e-02,7.294763092449928210e-02,6.968869327621807219e-02,6.607681437307930117e-02,6.206933744840305994e-02,5.766206482096418451e-02,5.288151299205316042e-02,4.777363347097410284e-02,4.239290950298087168e-02,3.679573671860625339e-02,3.104016586802652716e-02,2.519070235475274686e-02,1.932379463905798192e-02,1.352942643136175252e-02,7.906975169378516535e-03,2.556746981400805172e-03,-2.429868660844638952e-03,-6.978888343487224706e-03,-1.103888244163157839e-02,-1.458163989578059247e-02,-1.759840140235471861e-02,-2.009313101992829878e-02,-2.207520174738723112e-02,-2.355366552053632725e-02,-2.453447999314629230e-02,-2.502130789092541288e-02,-2.501943944582312590e-02,-2.454123544838011234e-02,-2.361131608925493702e-02,-2.227038412577719839e-02,-2.057704820862170728e-02,-1.860742272785420592e-02,-1.645330394560591894e-02,-1.422061077436205696e-02,-1.202914713960116788e-02,-1.001318923940969392e-02,-8.321685710873853378e-03,-7.116695266493889595e-03,-6.567916228103919465e-03,-6.841020250630490927e-03,-8.079602506490301053e-03,-1.038357943958790122e-02,-1.378843118340570065e-02,-1.824941742173336393e-02,-2.363400812810041024e-02,-2.972515446430496269e-02,-3.623705643070106175e-02,-4.284238579083361753e-02,-4.920608525207826461e-02,-5.501876292427118620e-02,-6.002374481070039264e-02,-6.403450936595522780e-02,-6.694149965985857209e-02,-6.870802539790359098e-02,-6.935429542255597268e-02,-6.892847189098467997e-02,-6.746552699789822027e-02,-6.493811143441330369e-02,-6.120759929237894886e-02,-5.598679481540663749e-02,-4.882581042211060068e-02,-3.912729513760503791e-02,-2.618906415657810613e-02,-9.266482188708210013e-03,1.235454652740698191e-02,3.928251913166050380e-02,7.195049402470424238e-02,1.105568895460091045e-01,1.550202064669322644e-01,2.049489975132736674e-01,2.596270994358999551e-01,3.180146968677539099e-01,3.787685240192848468e-01,4.402868154080595287e-01,5.007828716975356587e-01,5.583854512521291280e-01,6.112584036417296751e-01,6.577279387400546407e-01,6.964030887029845074e-01,7.262735106824057540e-01,7.467697031337867664e-01,7.577754405317554953e-01,0.000000000000000000e+00,0.000000000000000000e+00,0.000000000000000000e+00,0.000000000000000000e+00,0.000000000000000000e+00,0.000000000000000000e+00,0.000000000000000000e+00,0.000000000000000000e+00,0.000000000000000000e+00,0.000000000000000000e+00,0.000000000000000000e+00,0.000000000000000000e+00,0.000000000000000000e+00,0.000000000000000000e+00,0.000000000000000000e+00,0.000000000000000000e+00,0.000000000000000000e+00,0.000000000000000000e+00,0.000000000000000000e+00,0.000000000000000000e+00,0.000000000000000000e+00,0.000000000000000000e+00,0.000000000000000000e+00,0.000000000000000000e+00,0.000000000000000000e+00,0.000000000000000000e+00,0.000000000000000000e+00,0.000000000000000000e+00,0.000000000000000000e+00,0.000000000000000000e+00,0.000000000000000000e+00,0.000000000000000000e+00,0.000000000000000000e+00,0.000000000000000000e+00,0.000000000000000000e+00,0.000000000000000000e+00,0.000000000000000000e+00,0.000000000000000000e+00,0.000000000000000000e+00,0.000000000000000000e+00,0.000000000000000000e+00,0.000000000000000000e+00,0.000000000000000000e+00,0.000000000000000000e+00,0.000000000000000000e+00,0.000000000000000000e+00,0.000000000000000000e+00,0.000000000000000000e+00,0.000000000000000000e+00,0.000000000000000000e+00,0.000000000000000000e+00,0.000000000000000000e+00,0.000000000000000000e+00,0.000000000000000000e+00,0.000000000000000000e+00,0.000000000000000000e+00,0.000000000000000000e+00,0.000000000000000000e+00,0.000000000000000000e+00,0.000000000000000000e+00,0.000000000000000000e+00,0.000000000000000000e+00,0.000000000000000000e+00,0.000000000000000000e+00,0.000000000000000000e+00,0.000000000000000000e+00,0.000000000000000000e+00,0.000000000000000000e+00,0.000000000000000000e+00,0.000000000000000000e+00,0.000000000000000000e+00,0.000000000000000000e+00,0.000000000000000000e+00,0.000000000000000000e+00,0.000000000000000000e+00,0.000000000000000000e+00,0.000000000000000000e+00,0.000000000000000000e+00,0.000000000000000000e+00,0.000000000000000000e+00,0.000000000000000000e+00,0.000000000000000000e+00,0.000000000000000000e+00,0.000000000000000000e+00,0.000000000000000000e+00,0.000000000000000000e+00,0.000000000000000000e+00,0.000000000000000000e+00,0.000000000000000000e+00,0.000000000000000000e+00,0.000000000000000000e+00,0.000000000000000000e+00,0.000000000000000000e+00,0.000000000000000000e+00
7.595919320145012588e-01,7.528645334906979292e-01,7.384896850016624548e-01,7.175200980167130149e-01,6.910819584691524353e-01,6.603104757212101550e-01,6.263018778439884970e-01,5.900759225412961495e-01,5.525452976670204297e-01,5.144930146895830836e-01,4.765614139787652248e-01,4.392551143441371098e-01,4.029564537090348231e-01,3.679493599010705274e-01,3.344476345193330702e-01,3.026235084135670550e-01,2.726312098042115717e-01,2.446208400753191181e-01,2.187403211256397917e-01,1.951254375859179380e-01,1.738800441434444899e-01,1.550514340075022091e-01,1.386084014954642729e-01,1.244289513857713136e-01,1.123007353588773988e-01,1.019336347135667564e-01,9.298276321250173448e-02,8.507952599551289741e-02,7.786650669326432295e-02,7.103033660012102180e-02,6.432683101078831567e-02,5.759447795785501562e-02,5.075528800167469767e-02,4.380527705109055897e-02,3.679906803896809686e-02,2.983291783633773217e-02,2.302837863466441343e-02,1.651695585424715895e-02,1.042574370072816767e-02,4.864522970628966554e-03,-8.468261738625457386e-05,-4.374408201780636239e-03,-7.993974136114476506e-03,-1.096700161884779472e-02,-1.334520151737660087e-02,-1.520033636015381655e-02,-1.661648078425379677e-02,-1.768387094748499755e-02,-1.849408929178278718e-02,-1.913536881356000044e-02,-1.968729418718939347e-02,-2.021546348040263036e-02,-2.076738417027386777e-02,-2.137050095806503069e-02,-2.203243354205782628e-02,-2.274297889450162258e-02,-2.347716051666760145e-02,-2.419836271446203918e-02,-2.486092799574855447e-02,-2.541279382262896097e-02,-2.579960238602159103e-02,-2.597119577953213229e-02,-2.589004141525960700e-02,-2.553978732012413683e-02,-2.493131975866039532e-02,-2.410405662726103695e-02,-2.312189433070327774e-02,-2.206505836653389896e-02,-2.101990612883714721e-02,-2.006859936534429248e-02,-1.928020112489986504e-02,-1.870439589218643797e-02,-1.836851024370081756e-02,-1.827781717638217104e-02,-1.841850285109235610e-02,-1.876230030548058439e-02,-1.927170060847485308e-02,-1.990496257668577032e-02,-2.062064197643063979e-02,-2.138151860465474854e-02,-2.215752042216655518e-02,-2.292706400217259591e-02,-2.367663686455738492e-02,-2.439918328989001961e-02,-2.509218113484313131e-02,-2.575608431938705353e-02,-2.639353630701680650e-02,-2.700936593658128174e-02,-2.761070813399476090e-02,-2.820647146170213865e-02,-2.880615393793431456e-02,-2.941849005214010326e-02,-3.004995540535193577e-02,-3.070284788809566137e-02,-3.137317487960091661e-02,-3.204911970354917122e-02,-3.271088088557212031e-02,-3.333238422800809814e-02,-3.388480011458979563e-02,-3.434101317954860871e-02,-3.467970804115438205e-02,-3.488796236876124529e-02,-3.496203611423924495e-02,-3.490684892861342647e-02,-3.473489187635384057e-02,-3.446511997806252225e-02,-3.412209161756610265e-02,-3.373512719352582401e-02,-3.333665826266340310e-02,-3.295907753006138002e-02,-3.263065374054413548e-02,-3.237240654321038580e-02,-3.219762535755089222e-02,-3.211382750770154504e-02,-3.212516461533837520e-02,-3.223307708267431765e-02,-3.243428625537627535e-02,-3.271726309986733999e-02,-3.306005046641267986e-02,-3.343196816339254890e-02,-3.379872704317436055e-02,-3.412787408143394541e-02,-3.439247903885382651e-02,-3.457372695093696713e-02,-3.466374581921517761e-02,-3.466849444504021410e-02,-3.460941691282048982e-02,-3.452290147863749936e-02,-3.445743750645311604e-02,-3.446878773814395641e-02,-3.461364320372038034e-02,-3.494256657647556996e-02,-3.549322657176816331e-02,-3.628467594416214664e-02,-3.731323683168495664e-02,-3.855062706622132407e-02,-3.994483463369308263e-02,-4.142382376052671650e-02,-4.290159428893911692e-02,-4.428564375174404849e-02,-4.548497419407387249e-02,-4.641822261869643640e-02,-4.702144999756648069e-02,-4.725466025632808070e-02,-4.710598406716354908e-02,-4.659296609568287784e-02,-4.576117070152584815e-02,-4.468062553932197756e-02,-4.344027891751208598e-02,-4.214049145729751450e-02,-4.088418767957643918e-02,-3.976810009800019197e-02,-3.887575066741483232e-02,-3.827314376890882108e-02,-3.800685777799368142e-02,-3.810322859245510174e-02,-3.856755933126576608e-02,-3.938356106641377474e-02,-4.051418931198227935e-02,-4.190469215636849487e-02,-4.348747114179593587e-02,-4.518751133906871720e-02,-4.692734971062047927e-02,-4.863151080430062889e-02,-5.023113485473141432e-02,-5.166936124837387401e-02,-5.290701692891927599e-02,-5.392726504506790974e-02,-5.473780118852641929e-02,-5.536973669490643374e-02,-5.587298475173362033e-02,-5.630866377698519332e-02,-5.673990309189088505e-02,-5.722316982904854243e-02,-5.780197740270580364e-02,-5.850348456025231125e-02,-5.933733009822237531e-02,-6.029601846872494758e-02,-6.135670512397407850e-02,-6.248456650262006196e-02,-6.363790489913732917e-02,-6.477448965751481103e-02,-6.585766373358613313e-02,-6.686060676499258615e-02,-6.776815430571048182e-02,-6.857672376772439016e-02,-6.929329355210711583e-02,-6.993392637269446599e-02,-7.052165004292224038e-02,-7.108343185619807325e-02,-7.164652962080172993e-02,-7.223496353715268270e-02,-7.286682817638019671e-02,-7.355275727364618543e-02,-7.429528104453024528e-02,-7.508845337841055234e-02,-7.591740077636950634e-02,-7.675821355101693222e-02,-7.757904082747631158e-02,-7.834287092759349702e-02,-7.901176221371106201e-02,-7.955172417027567278e-02,-7.993701152151783118e-02,-8.015266624046565869e-02,-8.019516433549594980e-02,-8.007222491458848568e-02,-7.980298783398506735e-02,-7.941879099297440014e-02,-7.896366815797566108e-02,-7.849332938202195631e-02,-7.807189603862373095e-02,-7.776652959163392331e-02,-7.764069095140538335e-02,-7.774692793407528280e-02,-7.812024353331739612e-02,-7.877339116559720078e-02,-7.969529888128384920e-02,-8.085307977510615418e-02,-8.219719353954436925e-02,-8.366844006365210806e-02,-8.520500736233840855e-02,-8.674845630631770887e-02,-8.824862992029944286e-02,-8.966770919751226865e-02,-9.098312032282120099e-02,-9.218869043081594217e-02,-9.329376414403810214e-02,-9.432061592831182673e-02,-9.530075874822040161e-02,-9.627058053824419370e-02,-9.726676530126611431e-02,-9.832225760811526272e-02,-9.946346475476491866e-02,-1.007088495136230222e-01,-1.020686723438307408e-01,-1.035455703165614610e-01,-1.051355481861242086e-01,-1.068289988785210282e-01,-1.086119078999020493e-01,-1.104677363975166277e-01,-1.123798490003653089e-01,-1.143334900165434015e-01,-1.163164281394729466e-01,-1.183182542933505499e-01,-1.203290420371742470e-01,-1.223385509496949797e-01,-1.243370945097336117e-01,-1.263180644025139743e-01,-1.282807046838717324e-01,-1.302314375969797211e-01,-1.321829519355915972e-01,-1.341514311356795663e-01,-1.361527031864812609e-01,-1.381975918162019201e-01,-1.402865909191144123e-01,-1.424051221239255316e-01,-1.445218988140659633e-01,-1.465924138300506163e-01,-1.485670828438145075e-01,-1.504009987537685000e-01,-1.520618394533608253e-01,-1.535341018845430006e-01,-1.548192759474888158e-01,-1.559321183816515799e-01,-1.568942299870954293e-01,-1.577278056850341392e-01,-1.584526011906849108e-01,-1.590868013367641998e-01,-1.596497304671506412e-01,-1.601636884238246128e-01,-1.606534815955506790e-01,-1.611439481079737779e-01,-1.616569384893148664e-01,-1.622093197420413357e-01,-1.628127320798735955e-01,-1.634747071094595494e-01,-1.641999879540204099e-01,-1.649909512937649536e-01,-1.658469589705137970e-01,-1.667634225475630172e-01,-1.677314189376930553e-01,-1.687380162797385563e-01,-1.697670297491813141e-01,-1.708001564381946280e-01,-1.718187009670299192e-01,-1.728058528009551453e-01,-1.737492095968922456e-01,-1.746433533137591587e-01,-1.754921846911428607e-01,-1.763101965509423219e-01,-1.771217507668683966e-01,-1.779581050794263875e-01,-1.788527210899402697e-01,-1.798357276392745230e-01,-1.809284142432228959e-01,-1.821382888191500349e-01,-1.834546776291175185e-01,-1.848449741136463931e-01,-1.862529039153586752e-01,-1.876011089581300084e-01,-1.887991499458638034e-01,-1.897552580565181890e-01,-1.903882528991172607e-01,-1.906362483039223954e-01,-1.904605385294613484e-01,-1.898453532139548761e-01,-1.887956107052539967e-01,-1.873344022687318811e-01,-1.855005879646749178e-01,-1.833460907824809583e-01,-1.809324761571685924e-01,-1.783266869488393247e-01,-1.755961049295185483e-01,-1.728034653200474779e-01,-1.700024150556931901e-01,-1.672342018889892146e-01,-1.645252935511548331e-01,-1.618856894702740135e-01,-1.593084321186278296e-01,-1.567711452380202986e-01,-1.542397410893586451e-01,-1.516735915070523133e-01,-1.490313305459322890e-01,-1.462768029522864555e-01,-1.433846458915249700e-01,-1.403445611832873641e-01,-1.371633106970047145e-01,-1.338640733237340397e-01,-1.304834014033062484e-01,-1.270662473533371306e-01,-1.236597144740167187e-01,-1.203065302348598348e-01,-1.170394093855902928e-01,-1.138771941604873883e-01,-1.108231356175488069e-01,-1.078651312431937459e-01,-1.049773290241593909e-01,-1.021226073299869586e-01,-9.925592501751646923e-02,-9.632868663059324099e-02,-9.329383488645612288e-02,-9.011090444750978479e-02,-8.675030396433396074e-02,-8.319649030870286677e-02,-7.944991385307952070e-02,-7.552767718217812121e-02,-7.146304855015647717e-02,-6.730395510112280322e-02,-6.311009720974636306e-02,-5.894811184013978855e-02,-5.488504842852186955e-02,-5.098171654413905657e-02,-4.728768163871104047e-02,-4.383842913671567171e-02,-4.065390840447566378e-02,-3.773753011432570692e-02,-3.507541461857993648e-02,-3.263642505124846743e-02,-3.037384629002486819e-02,-2.822940504352651828e-02,-2.613962319426680475e-02,-2.404334353971141966e-02,-2.188835197607883268e-02,-1.963545771722955205e-02,-1.726031600487150375e-02,-1.475489980182867825e-02,-1.212972634185042510e-02,-9.415296427836962120e-03,-6.660029174981390958e-03,-3.923974162558654249e-03,-1.270437976528269401e-03,1.241561994857259040e-03,3.562557707389069246e-03,5.655872587029559667e-03,7.499591309169177135e-03,9.087659393662309015e-03,1.043031363529659146e-02,1.155377005791694695e-02,1.249867566728271422e-02,1.331697902541350946e-02,1.406741301657201369e-02,1.481007473571143221e-02,1.560088527457572163e-02,1.648700555262850448e-02,1.750389717943925949e-02,1.867381190874005392e-02,2.000495106194305137e-02,2.149071415069725779e-02,2.310914767804081796e-02,2.482345544138851723e-02,2.658452448160160755e-02,2.833552993168898804e-02,3.001763877742366637e-02,3.157573889808305140e-02,3.296373212532956176e-02,3.414909972641896885e-02,3.511608142280899653e-02,3.586690235851302394e-02,3.642115166441083768e-02,3.681367731094880441e-02,3.709103606990363233e-02,3.730646601928069156e-02,3.751381328851495500e-02,3.776135465994910623e-02,3.808654817816354426e-02,3.851225172641915134e-02,3.904431824829672493e-02,3.967048725454248859e-02,4.036105824487169064e-02,4.107197647872429941e-02,4.175027487455375275e-02,4.234108857183897096e-02,4.279544772994659657e-02,4.307810627724299735e-02,4.317399106831524419e-02,4.309150612671500125e-02,4.286200576037548643e-02,4.253613320705288553e-02,4.217802403383019011e-02,4.185812589461157529e-02,4.164549015814855704e-02,4.160040475299522228e-02,4.176766948382694411e-02,4.217061751456062380e-02,4.280689534143301833e-02,4.364764293966068298e-02,4.464068447321425243e-02,4.571684203901350135e-02,4.679816961126741920e-02,4.780707793498727848e-02,4.867482449012255213e-02,4.934757668952684945e-02,4.978936589972881438e-02,4.998282925702468571e-02,4.992916654749198629e-02,4.964811420604779008e-02,4.917779514711590610e-02,4.857359187788723442e-02,4.790492583236236751e-02,4.724926398654238913e-02,4.668376015955492259e-02,4.627598024081526484e-02,4.607543032956359919e-02,4.610715389843314527e-02,4.636812854745650525e-02,4.682676252834464675e-02,4.742520962751931024e-02,4.808389764776760389e-02,4.870811925794708841e-02,4.919697369781888402e-02,4.945431263454463239e-02,4.940012170621595894e-02,4.898024787735016927e-02,4.817279222783875381e-02,4.699017927969544733e-02,4.547669780905851111e-02,4.370231874498808899e-02,4.175444851006492042e-02,3.972934787452185590e-02,3.772425962369849173e-02,3.583059093065636691e-02,3.412826893399700107e-02,3.268138864312448988e-02,3.153519181994846737e-02,3.071421468091738161e-02,3.022132346647102979e-02,3.003757840887652866e-02,3.012324473016515791e-02,3.042042546971374453e-02,3.085763753606039425e-02,3.135611969261190707e-02,3.183692942568819989e-02,3.222763776374867190e-02,3.246773642763212814e-02,3.251208951800314828e-02,3.233224523988736249e-02,3.191686951055044963e-02,3.127326993991081522e-02,3.042966277997757180e-02,2.943468037750836611e-02,2.835122462689950579e-02,2.724594203708564227e-02,2.617857573743460203e-02,2.519467105990489883e-02,2.432249759280504658e-02,2.357342637583569045e-02,2.294489957419358281e-02,2.242531317209072242e-02,2.199973933057737183e-02,2.165485017912900656e-02,2.138158477829369894e-02,2.117526603207882732e-02,2.103425298163151547e-02,2.095867946006573640e-02,2.095004148068928262e-02,2.101133300892579422e-02,2.114714070936821871e-02,2.136338834595945604e-02,2.166660979209256502e-02,2.206275595255947214e-02,2.255577627002516156e-02,2.314615046268999818e-02,2.382909129571647924e-02,2.459217866687535975e-02,2.541305683020897779e-02,2.625842842988805603e-02,2.708509127174053496e-02,2.784290082758242649e-02,2.847935356527767428e-02,2.894563227064361061e-02,2.920318105127211669e-02,2.922862595446836659e-02,2.901525402131193213e-02,2.857134512951247513e-02,2.791696723664797292e-02,2.708052661664353891e-02,2.609568004475258315e-02,2.499878196012620540e-02,2.382672605546779301e-02,2.261501801438243336e-02,2.139612781805978747e-02,2.019820730781659440e-02,1.904407563579643345e-02,1.795031179193461168e-02,1.692641282723532023e-02,1.597406514838536212e-02,1.508675414500120805e-02,1.425030068195134135e-02,1.344494753124195544e-02,1.264890897100487931e-02,1.184234527693734350e-02,1.101046731483916810e-02,1.014507809171446423e-02,9.244588154128870888e-03,8.312924488030084408e-03,7.357924686339093259e-03,6.389848357964846189e-03,5.420431922176065405e-03,4.462547718090463696e-03,3.530223848899578971e-03,2.638615201773658950e-03,1.803505777334995586e-03,1.040039255475010268e-03,3.606335321381363046e-04,-2.274914162562573759e-04,-7.245039018542831326e-04,-1.139660672105340371e-03,-1.492712269230412475e-03,-1.814707428449348521e-03,-2.147162717417545712e-03,-2.538640819752231801e-03,-3.038590375283036719e-03,-3.689325887088379559e-03,-4.517947508216539620e-03,-5.530269793848185955e-03,-6.708014205477968832e-03,-8.009289516737325837e-03,-9.371854904757852614e-03,-1.071885200195470296e-02,-1.196678114630099835e-02,-1.303504221283030562e-02,-1.385553764260344205e-02,-1.438027518402110183e-02,-1.458531431287653050e-02,-1.447084082361606121e-02,-1.405882769195035409e-02,-1.339026919193548812e-02,-1.252271686141869129e-02,-1.152725332749062782e-02,-1.048398186074353707e-02,-9.476230307175460832e-03,-8.584324977864012801e-03,-7.879504476506236227e-03,-7.418047272461919875e-03,-7.235574111951526000e-03,-7.341764116772861101e-03,-7.716123533909409818e-03,-8.305724195845591920e-03,-9.025974151361446790e-03,-9.765586273307851756e-03,-1.039669022828960260e-02,-1.078990632980345726e-02,-1.083224775031999682e-02,-1.044409005111419757e-02,-9.591282397134599097e-03,-8.289937515041392174e-03,-6.603752910763109087e-03,-4.635498242066131945e-03,-2.514612740478526422e-03,-3.824962119441682891e-04,1.622512968436789311e-03,3.377812475997957632e-03,4.785030989151387547e-03,5.774622996906170549e-03,6.308115053474060673e-03,6.379027817243873057e-03,6.012388258928470265e-03,5.262380559781888907e-03,4.207930656980884976e-03,2.946252039960210387e-03,1.584705838378190493e-03,2.319671174886205815e-04,-1.010102680267965791e-03,-2.052902000839444078e-03,-2.825776064118146885e-03,-3.279381968100938873e-03,-3.387985657210199932e-03,-3.150337841058101652e-03,-2.588341442471960192e-03,-1.743189925881968990e-03,-6.699464206075390720e-04,5.676830542094239837e-04,1.901186352717454224e-03,3.259546210014840038e-03,4.570563371921276472e-03,5.762277835506793636e-03,6.765734825055018040e-03,7.519606454734263992e-03,7.975907243166329916e-03,8.105342003335765447e-03,7.901237292387399205e-03,7.381844756549489975e-03,6.590927567842040646e-03,5.596028760810142604e-03,4.483767132939589506e-03,3.352083881515033337e-03,2.300046546424711937e-03,1.416722087989961704e-03,7.716282329921944454e-04,4.092426326758700095e-04,3.484872630693752835e-04,5.861919843827224832e-04,1.102625593502257412e-03,1.867211727637058160e-03,2.842921826790481554e-03,3.988562530737605090e-03,5.259212672504786322e-03,6.605867304458892635e-03,7.975561561126906160e-03,9.312929672917299312e-03,1.056337662885884626e-02,1.167707827138170576e-02,1.261253028375137510e-02,1.333868327891830560e-02,1.383540923998308192e-02,1.409252310936321383e-02,1.410782352707231312e-02,1.388507941385041383e-02,1.343326856304354923e-02,1.276764407691642449e-02,1.191173148154185679e-02,1.089888820097142767e-02,9.772804976006308278e-03,8.586777102848592788e-03,7.401297464885888723e-03,6.279617682717971057e-03,5.281982209337767777e-03,4.460490056253059617e-03,3.856549123091715988e-03,3.501166362273322886e-03,3.416352059287221937e-03,3.615567519203625926e-03,4.102472151475944004e-03,4.868904833927069180e-03,5.893747299546625747e-03,7.143478510169089246e-03,8.573708818717001509e-03,1.013055315680142648e-02,1.175171867342858674e-02,1.336809112368106227e-02,1.490638172918684091e-02,1.629274854571881662e-02,1.745713730059698585e-02,1.833826769005098348e-02,1.888903818485247396e-02,1.908148451510225524e-02,1.891008859982714480e-02,1.839276766705439867e-02,1.756954180990365211e-02,1.649886660752659592e-02,1.525141412756683690e-02,1.390155749324903378e-02,1.251798909571216235e-02,1.115592249170756223e-02,9.853031927365495102e-03,8.629490519074779764e-03,7.490670787363718115e-03,6.430787978461543868e-03,5.436627942571859405e-03,4.491078334939817111e-03,3.576089486562980622e-03,2.674761693312058264e-03,1.772892699091447363e-03,8.607826461724202988e-04,-6.421214517665451262e-05,-9.945699685391430362e-04,-1.909719638774247299e-03,-2.774485188218523812e-03,-3.539765777711131878e-03,-4.145725805108785474e-03,-4.527215565136799569e-03,-4.620827481408537260e-03,-4.372761598733366888e-03,-3.746472155674723369e-03,-2.729001977396951131e-03,-1.335192935739112300e-03,3.906126259457503441e-04,2.375805379976171985e-03,4.524363872083827891e-03,6.725311977667536648e-03,8.863135707660443549e-03,1.082783288623365321e-02,1.252338695001481601e-02,1.387471565811241973e-02,1.483306634398686222e-02,1.537927049094168185e-02,1.552441946787981759e-02,1.530807623225284922e-02,1.479456843513313885e-02,1.406812240752412617e-02,1.322722597771132380e-02,1.237763872235107462e-02,1.162310547118798783e-02,1.105421580643476016e-02,1.073785776715939153e-02,1.070991782463285961e-02,1.097237210434333018e-02,1.149485204048141841e-02,1.222043529326141686e-02,1.307471362322070590e-02,1.397628535918541554e-02,1.484651003553833989e-02,1.561686302431104442e-02,1.623323895942748937e-02,1.665745335563654367e-02,1.686658344085776445e-02,1.685090404291476884e-02,1.661118868118826100e-02,1.615579114186284360e-02,1.549746532737040876e-02,1.465012047084176747e-02,1.362644266058796877e-02,1.243753968922822056e-02,1.109506918257113957e-02,9.614835115210662586e-03,8.019462552309137432e-03,6.338127537056305501e-03,4.603526152195419607e-03,2.848085824210855582e-03,1.101354472743973009e-03,-6.106681496053484835e-04,-2.264542763518238681e-03,-3.837600409745747353e-03,-5.306355406389680167e-03,-6.645841002401780585e-03,-7.829947861882891741e-03,-8.832286752218450679e-03,-9.627059274885281515e-03,-1.018988882059804896e-02,-1.049903035336300673e-02,-1.053737968247141048e-02,-1.029536095318083107e-02,-9.774402017801284495e-03,-8.990340570976307344e-03,-7.975890188080021412e-03,-6.781602686082445486e-03,-5.475380072539715731e-03,-4.140732819094045461e-03,-2.873465953610372485e-03,-1.776024374924862603e-03,-9.490060754943610479e-04,-4.803576295373479738e-04,-4.340682910028709077e-04,-8.410314694298653190e-04,-1.694281580972590521e-03,-2.949110809044565729e-03,-4.527031010142691311e-03,-6.322409271153982269e-03,-8.211505001009207494e-03,-1.006398488752762929e-02,-1.175589483892409103e-02,-1.318177067243018509e-02,-1.426378156923119832e-02,-1.495705128821879157e-02,-1.525110787405386213e-02,-1.516779203229168434e-02,-1.475646841115645438e-02,-1.408759968881573461e-02,-1.324535411541483826e-02,-1.231955160154959636e-02,-1.139741562262143286e-02,-1.055600278891335835e-02,-9.856356677364612462e-03,-9.340315035470133850e-03,-9.030563635969894934e-03,-8.933838257342632816e-03,-9.046190750497489635e-03,-9.358487575627199087e-03,-9.860309840608667137e-03,-1.054124441256417549e-02,-1.138973987913005463e-02,-1.239050414067757559e-02,-1.352155376711885321e-02,-1.475191666675792178e-02,-1.604100711552881517e-02,-1.734052539976471338e-02,-1.859889427341995805e-02,-1.976698844905645097e-02,-2.080318597850878623e-02,-2.167615269742670034e-02,-2.236489878001080359e-02,-2.285667256922607748e-02,-2.314364119945064302e-02,-2.321932346720486165e-02,-2.307590706873805311e-02,-2.270350978078053764e-02,-2.209157051902316954e-02,-2.123161416002278257e-02,-2.012048227834321509e-02,-1.876326432380252124e-02,-1.717500781557357303e-02,-1.538037212662413632e-02,-1.341125938073663149e-02,-1.130355408871682420e-02,-9.094570601925901221e-03,-6.822439944322463562e-03,-4.527738765279521078e-03,-2.256559743969477165e-03,-6.348802286382774661e-05,1.986957404990745499e-03,3.821182765350118575e-03,5.359956455099320997e-03,6.524670676198394796e-03,7.246426482189170792e-03,7.476731122324923109e-03,7.197199174389771331e-03,6.425723137717644952e-03,5.217935309922953555e-03,3.663946984648245274e-03,1.881125010921279274e-03,4.233532640877610016e-06,-1.825832987491497750e-03,-3.473845022123175398e-03,-4.821466211172142219e-03,-5.776670696753265569e-03,-6.280660278397605725e-03,-6.312074509425845241e-03,-5.888131046130623200e-03,-5.061993288373896685e-03,-3.915737231882788008e-03,-2.549162003522820706e-03,-1.066035881149422857e-03,4.397714732214430306e-04,1.895676801404134679e-03,3.256829273120865047e-03,4.505960335771743569e-03,5.647212815889900324e-03,6.697094520542720697e-03,7.676146366326064112e-03,8.602931336353798406e-03,9.490034222705161226e-03,1.034151099119207974e-02,1.115177309041129501e-02,1.190608500538204578e-02,1.258266233532476068e-02,1.315613949321874088e-02,1.360193931816395391e-02,1.390072800273524714e-02,1.404194427332822008e-02,1.402578424230037368e-02,1.386378212332092449e-02,1.357847542165485123e-02,1.320233609135956776e-02,1.277560671895490094e-02,1.234258428273531105e-02,1.194667584493642846e-02,1.162547004467175474e-02,1.140699471261222633e-02,1.130751632725509985e-02,1.133075785732981164e-02,1.146844814858614427e-02,1.170198244394866222e-02,1.200454087506666948e-02,1.234296213641304304e-02,1.267917201117720744e-02,1.297146813048055854e-02,1.317623135520249941e-02,1.325075323288616401e-02,1.315768578363944903e-02,1.287083747164596836e-02,1.238082747701868200e-02,1.169867759276257101e-02,1.085656717434397775e-02,9.906261804422729356e-03,8.915727856946083565e-03,7.964124259094059952e-03,7.135592407401573044e-03,6.512234276499872035e-03,6.166171948560686400e-03,6.150628358561369829e-03,6.490919916689343733e-03,7.177341348916559116e-03,8.162228968829867565e-03,9.362679310081192113e-03,1.066883597524600352e-02,1.195605801726942231e-02,1.309846672630858057e-02,1.398167994342377866e-02,1.451329349430844837e-02,1.463008728137957237e-02,1.430125606336253921e-02,1.352769869544902248e-02,1.233837228741001268e-02,1.078535786886333607e-02,8.939230059095047698e-03,6.885586151761268446e-03,4.722411689282999744e-03,2.556840353108634674e-03,4.995844115073430321e-04,-1.343740355757804894e-03,-2.883527337501192236e-03,-4.057027715116962550e-03,-4.836285317458118883e-03,-5.231057439263818790e-03,-5.286487002173415398e-03,-5.077096796288498373e-03,-4.699196117324362133e-03,-4.263118773678972219e-03,-3.885726200222929319e-03,-3.682863667776035618e-03,-3.761377463367100542e-03,-4.210945037713680929e-03,-5.096509419211900371e-03,-6.451945386076782252e-03,-8.275200426372850138e-03,-1.052524067515451384e-02,-1.312174346371326565e-02,-1.594891670113477572e-02,-1.886431840340500529e-02,-2.171216970643997241e-02,-2.433912181220005549e-02,-2.660962907739189073e-02,-2.841863646034334737e-02,-2.970058500126379966e-02,-3.043435607868705609e-02,-3.064358821291988250e-02,-3.039195853810860298e-02,-2.977397113440832799e-02,-2.890268627206649815e-02,-2.789598274641183831e-02,-2.686313850777852924e-02,-2.589439665874471164e-02,-2.505605422641550908e-02,-2.439089814126474409e-02,-2.392080460152093066e-02,-2.364821256720016016e-02,-2.355555840093706901e-02,-2.360428083125658966e-02,-2.373618387657048037e-02,-2.387913039652482874e-02,-2.395681827871129488e-02,-2.390029146889702943e-02,-2.365789279439206236e-02,-2.320108978840186575e-02,-2.252577005639101390e-02,-2.165051008143663303e-02,-2.061333783160605032e-02,-1.946725744077786036e-02,-1.827432321828174194e-02,-1.709889522747217588e-02,-1.600152941264576870e-02,-1.503479734170531587e-02,-1.424137579029591434e-02,-1.365361406595648475e-02,-1.329335373140042714e-02,-1.317128036049030476e-02,-1.328579004603756136e-02,-1.362199520372694810e-02,-1.415217148299798694e-02,-1.483874651034587308e-02,-1.563931420489108465e-02,-1.651164635729142696e-02,-1.741691496629604874e-02,-1.832089047772392232e-02,-1.919410667150992650e-02,-2.001197150015414372e-02,-2.075498157271167543e-02,-2.140858509773158058e-02,-2.196230248062050472e-02,-2.240814782980020403e-02,-2.273879914524734938e-02,-2.294628159043034937e-02,-2.302217961646929600e-02,-2.296023042603141315e-02,-2.276111444527205777e-02,-2.243775625254221945e-02,-2.201874870810853133e-02,-2.154828557762730745e-02,-2.108259371649679956e-02,-2.068415475641065954e-02,-2.041523098481018428e-02,-2.033146583310344729e-02,-2.047562065957852367e-02,-2.087173114239220320e-02,-2.152082900127221324e-02,-2.239976226575088325e-02,-2.346391735075982476e-02,-2.465316193599037184e-02,-2.589913902783705715e-02,-2.713224450876090474e-02,-2.828782678121996574e-02,-2.931145710238791668e-02,-3.016226952251147009e-02,-3.081338083550370921e-02,-3.124986098880426152e-02,-3.146577940364461701e-02,-3.146149844571228399e-02,-3.124182244644271508e-02,-3.081563069857184284e-02,-3.019725224405270941e-02,-2.940873751815795134e-02,-2.848158342594021494e-02,-2.745687345319395428e-02,-2.638350971843355167e-02,-2.531496849911423278e-02,-2.430571161152060219e-02,-2.340836727997908095e-02,-2.267185214343278923e-02,-2.213966088284686357e-02,-2.184745232264733925e-02,-2.181960005012252221e-02,-2.206503801840543205e-02,-2.257353494197706506e-02,-2.331420727832667766e-02,-2.423763097551434945e-02,-2.528127836412370766e-02,-2.637668798116415969e-02,-2.745673660098481642e-02,-2.846198226467443887e-02,-2.934540701083664799e-02,-3.007500685600395657e-02,-3.063406467053775284e-02,-3.101965896869990011e-02,-3.124044513572464196e-02,-3.131469394187592209e-02,-3.126923580867838753e-02,-3.113946268251568256e-02,-3.096970958348305852e-02,-3.081242617449153620e-02,-3.072464518122693111e-02,-3.076196761733190205e-02,-3.097220731971105437e-02,-3.139103055362822692e-02,-3.204043223215799485e-02,-3.292923315239595222e-02,-3.405406135036617016e-02,-3.539968825936583297e-02,-3.693867427209560766e-02,-3.863110710369081768e-02,-4.042504594143970370e-02,-4.225754962900507561e-02,-4.405621953519642947e-02,-4.574237974431585863e-02,-4.723760201430816930e-02,-4.847351215990720191e-02,-4.940209786971827555e-02,-5.000328598821023041e-02,-5.028848644156662384e-02,-5.030031772586133348e-02,-5.010889247013120690e-02,-4.980501319450385961e-02,-4.949065814065089358e-02,-4.926697407211202973e-02,-4.922036863163458537e-02,-4.940851286112394464e-02,-4.984893526886573223e-02,-5.051251723840796681e-02,-5.132310421148963270e-02,-5.216332710360564034e-02,-5.288573585056568355e-02,-5.332756600666522379e-02,-5.332708170281704602e-02,-5.273959606592273919e-02,-5.145178570731402667e-02,-4.939336371356598671e-02,-4.654538253682245774e-02,-4.294436422981384033e-02,-3.868108018326723435e-02,-3.389275300971408139e-02,-2.874866218249907263e-02,-2.343135290839659657e-02,-1.811713429374982309e-02,-1.295913911968602644e-02,-8.074883082730910377e-03,-3.539308953328312683e-03,6.164088170450188111e-04,4.400836082047170257e-03,7.854058716641127216e-03,1.103617782591567037e-02,1.401335394824188528e-02,1.684317210576893875e-02,1.956239424356106399e-02,2.217988419946823747e-02,2.467556861596000364e-02,2.700473454414778485e-02,2.910659397439616797e-02,3.091576164266804372e-02,3.237446023278431340e-02,3.344295456325163673e-02,3.410677520925296108e-02,3.438069020681377291e-02,3.430992515383934904e-02,3.396906590427344053e-02,3.345897975990554107e-02,3.290204788442457895e-02,3.243581022223003540e-02,3.220463865472130566e-02,3.234899446206111057e-02,3.299287390250980889e-02,3.423118996412181925e-02,3.611894647089949201e-02,3.866361382134863439e-02,4.182181002168564726e-02,4.550108849528338578e-02,4.956690894863882701e-02,5.385359713124321379e-02,5.817722052289436147e-02,6.234898293696560651e-02,6.618899674602844729e-02,6.954004624061549400e-02,7.227944414907168380e-02,7.432644602046785398e-02,7.564394270823389388e-02,7.623546828160884803e-02,7.614057351198513790e-02,7.543219204329341954e-02,7.421800724265399662e-02,7.264440645419556475e-02,7.089837790695893704e-02,6.920190744440633812e-02,6.779570142342999928e-02,6.691308248021643479e-02,6.674863733414536371e-02,6.742810781733613035e-02,6.898563326765358439e-02,7.135238646268013407e-02,7.435805074678196458e-02,7.774454954797405115e-02,8.119038140853987451e-02,8.434309147629334702e-02,8.685605504644201835e-02,8.842477114720002918e-02,8.881850564395928072e-02,8.790453163309512596e-02,8.566286704140901875e-02,8.218960405843185602e-02,7.768754945709299697e-02,7.244396289782645271e-02,6.679712871849950717e-02,6.109656992975653206e-02,5.566373865626265960e-02,5.075888932793876096e-02,4.655706185305774625e-02,4.313429358800322660e-02,4.046452255140022686e-02,3.842695639561496956e-02,3.682261225534442378e-02,3.539788121679722510e-02,3.387274908241799665e-02,3.197125076785016506e-02,2.945120680530285279e-02,2.612941504868631151e-02,2.189830396506095220e-02,1.673170963978598200e-02,1.068060096766453894e-02,3.862347353928517052e-03,-3.552345607064094895e-03,-1.135250476051271988e-02,-1.930004127918228535e-02,-2.714438989533378421e-02,-3.463971018369411264e-02,-4.156385894795045638e-02,-4.773598833648150241e-02,-5.302877522892721074e-02,-5.737306148137301387e-02,-6.075566678013453320e-02,-6.321275606653839474e-02,-6.482072276357088436e-02,-6.568549845763804740e-02,-6.593069151221733759e-02,-6.568515016865057732e-02,-6.507121374347342446e-02,-6.419541778608513216e-02,-6.314300082941505521e-02,-6.197641262018437763e-02,-6.073709099445828707e-02,-5.944949025854154995e-02,-5.812648244884671689e-02,-5.677561680659647808e-02,-5.540617614374999944e-02,-5.403716438801102473e-02,-5.270592807208245023e-02,-5.147604582394366829e-02,-5.044198668137818420e-02,-4.972784373025204707e-02,-4.947877474087348376e-02,-4.984591615342658100e-02,-5.096699943860241722e-02,-5.294503579822281564e-02,-5.582715397598597695e-02,-5.958621879981691044e-02,-6.410901077187175501e-02,-6.919498179374536373e-02,-7.456796074707575106e-02,-7.990028322676745454e-02,-8.484591911905493833e-02,-8.907702531811187430e-02,-9.231751494874902708e-02,-9.436823330833725432e-02,-9.512055016727066770e-02,-9.455702271293803252e-02,-9.273854296424420551e-02,-8.977771700751940864e-02,-8.579911191072020493e-02,-8.088932597163267513e-02,-7.504377149044023920e-02,-6.812087309323815176e-02,-5.981516011378459202e-02,-4.965698701080658445e-02,-3.703982239781693914e-02,-2.126981169683894030e-02,-1.629583836068859313e-03,2.255118610518080935e-02,5.182452869285946589e-02,8.655769677652140615e-02,1.268769518467598167e-01,1.726262746021194894e-01,2.233426144678612724e-01,2.782460230705242066e-01,3.362434514114321926e-01,3.959494026067588712e-01,4.557304950825296630e-01,5.137805150976155755e-01,5.682277015282422017e-01,6.172676036709854319e-01,6.593043948888149819e-01,6.930765730058225937e-01,7.177450026197509381e-01,7.329305003605148805e-01,0.000000000000000000e+00,0.000000000000000000e+00,0.000000000000000000e+00,0.000000000000000000e+00,0.000000000000000000e+00,0.000000000000000000e+00,0.000000000000000000e+00,0.000000000000000000e+00,0.000000000000000000e+00,0.000000000000000000e+00,0.000000000000000000e+00,0.000000000000000000e+00,0.000000000000000000e+00,0.000000000000000000e+00,0.000000000000000000e+00,0.000000000000000000e+00,0.000000000000000000e+00,0.000000000000000000e+00,0.000000000000000000e+00,0.000000000000000000e+00,0.000000000000000000e+00,0.000000000000000000e+00,0.000000000000000000e+00,0.000000000000000000e+00,0.000000000000000000e+00,0.000000000000000000e+00,0.000000000000000000e+00,0.000000000000000000e+00,0.000000000000000000e+00,0.000000000000000000e+00,0.000000000000000000e+00,0.000000000000000000e+00,0.000000000000000000e+00,0.000000000000000000e+00,0.000000000000000000e+00,0.000000000000000000e+00,0.000000000000000000e+00,0.000000000000000000e+00,0.000000000000000000e+00,0.000000000000000000e+00,0.000000000000000000e+00,0.000000000000000000e+00,0.000000000000000000e+00,0.000000000000000000e+00,0.000000000000000000e+00,0.000000000000000000e+00,0.000000000000000000e+00,0.000000000000000000e+00,0.000000000000000000e+00,0.000000000000000000e+00,0.000000000000000000e+00,0.000000000000000000e+00,0.000000000000000000e+00,0.000000000000000000e+00,0.000000000000000000e+00,0.000000000000000000e+00,0.000000000000000000e+00,0.000000000000000000e+00,0.000000000000000000e+00,0.000000000000000000e+00,0.000000000000000000e+00,0.000000000000000000e+00,0.000000000000000000e+00,0.000000000000000000e+00
7.386991085038600025e-01,7.355032749627790079e-01,7.240950452227646883e-01,7.054307482813866326e-01,6.805844342272104885e-01,6.506802179688332410e-01,6.168445489480809396e-01,5.801732936229277993e-01,5.417073019352242058e-01,5.024112075777011910e-01,4.631527905965280301e-01,4.246841333952259823e-01,3.876272506632725268e-01,3.524651696266462020e-01,3.195391074400491527e-01,2.890541214082431587e-01,2.610949587778978453e-01,2.356493150042379969e-01,2.126317551371635639e-01,1.919026714223713570e-01,1.732814662289735574e-01,1.565567440473670524e-01,1.414962324290424678e-01,1.278569328644926784e-01,1.153944406129026740e-01,1.038707559563801092e-01,9.306127500165237154e-02,8.276235244041138528e-02,7.280038306426885042e-02,6.304217733440131699e-02,5.340474455830374750e-02,4.386102624242401576e-02,3.443800308694215662e-02,2.520584602672344340e-02,1.626052380037934508e-02,7.704830457344199156e-03,-3.679158437395867870e-04,-7.885810631320898378e-03,-1.480554031186267008e-02,-2.111420046348528104e-02,-2.682572004696249027e-02,-3.197365667796026739e-02,-3.660332439015722555e-02,-4.076556896186758761e-02,-4.451255848041996144e-02,-4.789426129866537762e-02,-5.095431888438924084e-02,-5.372570714484167786e-02,-5.622810034344642022e-02,-5.846875151442273988e-02,-6.044706304388670209e-02,-6.216096856718698882e-02,-6.361244071737619243e-02,-6.481055259792158074e-02,-6.577219454328286918e-02,-6.652123004339986767e-02,-6.708671527952171643e-02,-6.750088185110232619e-02,-6.779803113422161465e-02,-6.801524443106758688e-02,-6.819441301091043461e-02,-6.838363895919152835e-02,-6.863581063434052998e-02,-6.900343284762723572e-02,-6.953087547510333755e-02,-7.024646654288103920e-02,-7.115649306515380024e-02,-7.224235971863145200e-02,-7.346178831882466120e-02,-7.475423874819593639e-02,-7.604929909849715564e-02,-7.727574650031128478e-02,-7.836920949047798679e-02,-7.927733047586009441e-02,-7.996222375920496173e-02,-8.040081315182343036e-02,-8.058429609869476040e-02,-8.051794785419510991e-02,-8.022148111962057460e-02,-7.972893853741465364e-02,-7.908667781030746802e-02,-7.834875443907546311e-02,-7.757041829598913807e-02,-7.680159862358028333e-02,-7.608218433094615651e-02,-7.543951766093157096e-02,-7.488712026521143761e-02,-7.442359785629658331e-02,-7.403183060277440664e-02,-7.367972147121344684e-02,-7.332363874132682979e-02,-7.291422401412825383e-02,-7.240307258293898762e-02,-7.174898066988794065e-02,-7.092317862280983487e-02,-6.991344761871567948e-02,-6.872728278989012618e-02,-6.739410475995136207e-02,-6.596583156149024574e-02,-6.451469052949466987e-02,-6.312774703246609720e-02,-6.189883179947357206e-02,-6.091925757294366917e-02,-6.026861039111551521e-02,-6.000657366220461114e-02,-6.016647599609097063e-02,-6.075081491719469540e-02,-6.172861306678405213e-02,-6.303464673185345257e-02,-6.457110413898990708e-02,-6.621220310215120142e-02,-6.781157484553321235e-02,-6.921174352649958617e-02,-7.025544542466566345e-02,-7.079896369488733465e-02,-7.072684501919197786e-02,-6.996592849088051347e-02,-6.849632138993387576e-02,-6.635785152361776962e-02,-6.365113733477954783e-02,-6.053226926993425516e-02,-5.720008912106014365e-02,-5.387606560690393759e-02,-5.077889542046429977e-02,-4.809833416500045727e-02,-4.597379638423274711e-02,-4.448205080880247853e-02,-4.363560865565199037e-02,-4.339066296195723954e-02,-4.366172577532519139e-02,-4.433947215900149036e-02,-4.530813346586660961e-02,-4.645906563109889614e-02,-4.769848745039578092e-02,-4.894957723835031971e-02,-5.015082471850345475e-02,-5.125298669050510486e-02,-5.221643097756158147e-02,-5.300966928376452114e-02,-5.360902060749906523e-02,-5.399882814598350872e-02,-5.417154510982476884e-02,-5.412734666853511595e-02,-5.387322452178330140e-02,-5.342142663275559894e-02,-5.278721890107904158e-02,-5.198660000303734208e-02,-5.103510559622390780e-02,-4.994856245460391891e-02,-4.874570385541506651e-02,-4.745159440162705772e-02,-4.610054043150486197e-02,-4.473765295733341668e-02,-4.341887032093581095e-02,-4.220938828587963293e-02,-4.118016872233484088e-02,-4.040240602562544803e-02,-3.994092266096042204e-02,-3.984829619449638954e-02,-4.016087442252136430e-02,-4.089648302570880051e-02,-4.205331368038599943e-02,-4.361017992162551787e-02,-4.552844115902052874e-02,-4.775495088064967558e-02,-5.022467806739282919e-02,-5.286220874623109162e-02,-5.558260567446833555e-02,-5.829284398990430133e-02,-6.089479667666670287e-02,-6.329004316805190988e-02,-6.538618642896862343e-02,-6.710394022785132195e-02,-6.838398482449022098e-02,-6.919277586098411537e-02,-6.952693861936580511e-02,-6.941574248206594522e-02,-6.892037846227790088e-02,-6.812861280107281037e-02,-6.714473041258782471e-02,-6.607660475335111472e-02,-6.502270215867181347e-02,-6.406161932887427524e-02,-6.324610200245005254e-02,-6.260261281152702806e-02,-6.213612153658335663e-02,-6.183809156426289116e-02,-6.169450425811998789e-02,-6.169109225477750758e-02,-6.181489200787173427e-02,-6.205353931368455533e-02,-6.239453946728681921e-02,-6.282566248307724921e-02,-6.333617217901514607e-02,-6.391817829873309986e-02,-6.456784316824724923e-02,-6.528649764484899254e-02,-6.608148803634288082e-02,-6.696620712418524524e-02,-6.795868100988199101e-02,-6.907833195789071790e-02,-7.034127493073621951e-02,-7.175558990785430025e-02,-7.331834606083199868e-02,-7.501503448507382266e-02,-7.682054772343037408e-02,-7.870045609346233706e-02,-8.061219880257940174e-02,-8.250680353057397720e-02,-8.433195117869586588e-02,-8.603662656657901087e-02,-8.757665492226833492e-02,-8.891954459365232488e-02,-9.004699527451473506e-02,-9.095473649879386169e-02,-9.165102547616343909e-02,-9.215541389085185608e-02,-9.249825629172515884e-02,-9.272021829355697742e-02,-9.287054877820830057e-02,-9.300345383130807775e-02,-9.317327478108373973e-02,-9.342977575737046458e-02,-9.381401247035602020e-02,-9.435459201303694754e-02,-9.506469007609380517e-02,-9.594081994875688912e-02,-9.696394823935204632e-02,-9.810247060341155401e-02,-9.931588771929221460e-02,-1.005586311664550397e-01,-1.017847644190542772e-01,-1.029542873457535007e-01,-1.040400166285697786e-01,-1.050325741581639577e-01,-1.059416942714640902e-01,-1.067940935131014568e-01,-1.076295018575254697e-01,-1.084962713428929831e-01,-1.094471116539018768e-01,-1.105350533247305561e-01,-1.118097484918585127e-01,-1.133141413882257226e-01,-1.150813770255902924e-01,-1.171318988319934862e-01,-1.194707552991735727e-01,-1.220849745007654558e-01,-1.249412421841003679e-01,-1.279852770884644109e-01,-1.311447278055768717e-01,-1.343359994988658768e-01,-1.374732901497714155e-01,-1.404772250831823333e-01,-1.432813336059765019e-01,-1.458360991836464005e-01,-1.481113542030736696e-01,-1.500980376497149660e-01,-1.518095129563829526e-01,-1.532811551732790045e-01,-1.545664230874846390e-01,-1.557289874189876910e-01,-1.568323799008615738e-01,-1.579295489052131296e-01,-1.590545985535865847e-01,-1.602183774789456561e-01,-1.614086289158906395e-01,-1.625943657301864576e-01,-1.637335734234873774e-01,-1.647831662169497169e-01,-1.657095543464172371e-01,-1.664974343619754493e-01,-1.671544870475527023e-01,-1.677107599446007735e-01,-1.682130747804223836e-01,-1.687160268163371279e-01,-1.692715465207350889e-01,-1.699192459879921013e-01,-1.706802641322038849e-01,-1.715567518730084506e-01,-1.725367158449504779e-01,-1.736011666395474717e-01,-1.747294608238632863e-01,-1.759001661908278225e-01,-1.770879805186076350e-01,-1.782601827145247064e-01,-1.793764993041271905e-01,-1.803937215642112124e-01,-1.812731390200334747e-01,-1.819873507597954132e-01,-1.825238565909495236e-01,-1.828850270682638168e-01,-1.830860045032424444e-01,-1.831524453923553675e-01,-1.831187517698208700e-01,-1.830260514924342552e-01,-1.829191636963205803e-01,-1.828427404353230867e-01,-1.828372316181681168e-01,-1.829350850767320069e-01,-1.831574772048171207e-01,-1.835120025808981148e-01,-1.839917318596341334e-01,-1.845756953056307825e-01,-1.852304813869068978e-01,-1.859126683309628159e-01,-1.865718475504051510e-01,-1.871536167273889217e-01,-1.876018600273166581e-01,-1.878604290250017739e-01,-1.878749719192734646e-01,-1.875953155630203928e-01,-1.869781549539458743e-01,-1.859895146994250958e-01,-1.846064482134983087e-01,-1.828178210479894927e-01,-1.806248280513884918e-01,-1.780422862780279558e-01,-1.751008891802404155e-01,-1.718491879741670392e-01,-1.683535897898055522e-01,-1.646954661791259489e-01,-1.609655658909847353e-01,-1.572564922073747262e-01,-1.536541505650599049e-01,-1.502292413868400178e-01,-1.470300066902449909e-01,-1.440772404898300607e-01,-1.413623045226745922e-01,-1.388488534261434482e-01,-1.364785717749334992e-01,-1.341800428224190489e-01,-1.318787647278929220e-01,-1.295061459361051825e-01,-1.270058361812794190e-01,-1.243366945235398063e-01,-1.214732670445892032e-01,-1.184061615197784245e-01,-1.151441566146890055e-01,-1.117170122606608029e-01,-1.081759144007319734e-01,-1.045897781041069535e-01,-1.010384252344256328e-01,-9.760468121380637407e-02,-9.436652306391650480e-02,-9.138966625667059585e-02,-8.872100950777644934e-02,-8.638325429820074841e-02,-8.437095474892411517e-02,-8.264889979420916855e-02,-8.115418164139290291e-02,-7.980249518980640777e-02,-7.849776726142944361e-02,-7.714315652274846002e-02,-7.565118385914940125e-02,-7.395150736206586306e-02,-7.199635819158550776e-02,-6.976467699545364776e-02,-6.726553437594461060e-02,-6.453995914090020214e-02,-6.165942710521019055e-02,-5.872000096462240415e-02,-5.583279901234058928e-02,-5.311254947203539883e-02,-5.066582665311754330e-02,-4.857995840381594543e-02,-4.691319404492976658e-02,-4.568641921622495355e-02,-4.487692863574658381e-02,-4.441596693595589035e-02,-4.419250706752756580e-02,-4.406432683992843324e-02,-4.387474888947343055e-02,-4.347162800660940574e-02,-4.272491797096771710e-02,-4.153994942105251192e-02,-3.986514709899520448e-02,-3.769460512502736949e-02,-3.506662171110267595e-02,-3.205891423905068288e-02,-2.878078494382244057e-02,-2.536266730890257212e-02,-2.194405796207783352e-02,-1.866122960609504708e-02,-1.563591343499159958e-02,-1.296544074220155364e-02,-1.071435737376008439e-02,-8.907973969525424807e-03,-7.529315884756668936e-03,-6.521213904654031036e-03,-5.794125690008829384e-03,-5.238425632609142700e-03,-4.738793915879929014e-03,-4.188457660141027376e-03,-3.501367532208186396e-03,-2.620278809610609213e-03,-1.519126482911553611e-03,-1.998037664222198761e-04,1.314664904965674340e-03,2.988051030472326734e-03,4.778127575290957302e-03,6.642068288204699793e-03,8.539521802723075081e-03,1.043364844038517474e-02,1.229126342508024897e-02,1.408353693966274585e-02,1.578814082068558805e-02,1.739242958439540104e-02,1.889601437569317019e-02,2.031111189981850418e-02,2.166030537981244314e-02,2.297240367333321445e-02,2.427717474033721720e-02,2.559956652570309979e-02,2.695419714623214016e-02,2.834100315957446825e-02,2.974267025291727623e-02,3.112438423703437970e-02,3.243683878720289571e-02,3.362335259770460327e-02,3.463040353477821881e-02,3.541882928633505179e-02,3.597242920381119036e-02,3.630210815501539595e-02,3.644545265726259475e-02,3.646260248307019863e-02,3.642972440126237416e-02,3.643158134702618317e-02,3.655433440272640166e-02,3.687889256763661472e-02,3.747452506655128690e-02,3.839249381913308057e-02,3.966004067361068863e-02,4.127590829993289800e-02,4.320909184619680515e-02,4.540178754219967305e-02,4.777556318301989791e-02,5.023851768649709865e-02,5.269212865510072841e-02,5.503814354328667724e-02,5.718597958774184614e-02,5.905996500725260723e-02,6.060509378620684839e-02,6.179031671765327499e-02,6.260922145731552535e-02,6.307872787221199817e-02,6.323681692057997461e-02,6.314012613685755781e-02,6.286155705280394024e-02,6.248730405177858188e-02,6.211251644112521925e-02,6.183537000227329328e-02,6.175009513270819650e-02,6.193964996428810016e-02,6.246846257466549812e-02,6.337594439391142087e-02,6.467201761389818060e-02,6.633563586440040238e-02,6.831649316653753967e-02,7.053975492526727564e-02,7.291342895557421933e-02,7.533732074357854525e-02,7.771197651919295457e-02,7.994639254973234799e-02,8.196397774132285763e-02,8.370641145327821497e-02,8.513513528031384225e-02,8.623083974351665459e-02,8.699170922382282178e-02,8.743083675297223800e-02,8.757283917714046850e-02,8.744997912857233047e-02,8.709857748651750331e-02,8.655637721928599593e-02,8.586107953724694819e-02,8.505019137005555285e-02,8.416212682542471846e-02,8.323770652747028431e-02,8.232073087222656349e-02,8.145698675308865599e-02,8.069220430804817379e-02,8.007007384114037118e-02,7.963112691478498040e-02,7.941234129482765969e-02,7.944653059774517412e-02,7.976073747319085971e-02,8.037384815439083119e-02,8.129448098520254684e-02,8.252006686842658367e-02,8.403723307509873564e-02,8.582316602255746218e-02,8.784787550007017165e-02,9.007736990688082479e-02,9.247725478474765060e-02,9.501600602293736042e-02,9.766758060163477362e-02,1.004130247395029901e-01,1.032397747377041403e-01,1.061372560369680390e-01,1.090895946347813089e-01,1.120686666322374264e-01,1.150305653650367244e-01,1.179165106701397930e-01,1.206575579748593030e-01,1.231816589534458217e-01,1.254212133823895126e-01,1.273195025926485147e-01,1.288351857238391740e-01,1.299445827665680619e-01,1.306417838270693133e-01,1.309371688375278453e-01,1.308553221338038808e-01,1.304330905643423799e-01,1.297180719681139682e-01,1.287676837576380851e-01,1.276488499089167561e-01,1.264376985204062331e-01,1.252178808045920910e-01,1.240763553385723916e-01,1.230969429280133337e-01,1.223533081480252666e-01,1.219031362726402390e-01,1.217845754429434380e-01,1.220153005629701776e-01,1.225939071668606800e-01,1.235029255626129419e-01,1.247130844627373919e-01,1.261890920889418288e-01,1.278967201789280028e-01,1.298093427961316826e-01,1.319112322069020959e-01,1.341961085316662750e-01,1.366618078458454455e-01,1.393037830104453534e-01,1.421101939762313693e-01,1.450594636976788032e-01,1.481190670715374080e-01,1.512440023560585600e-01,1.543748904756738483e-01,1.574372678093307054e-01,1.603438094079583376e-01,1.629997352452560444e-01,1.653101713341500190e-01,1.671885406472130298e-01,1.685663142364104139e-01,1.694045234589208193e-01,1.697061277614921870e-01,1.695266846494914159e-01,1.689792852028939585e-01,1.682293379132877298e-01,1.674768901860910486e-01,1.669283902292958977e-01,1.667635453376643817e-01,1.671042028679824709e-01,1.679913414085199286e-01,1.693742057713239491e-01,1.711125209219480081e-01,1.729898032907511984e-01,1.747348107848502030e-01,1.760486626883397132e-01,1.766354814868317247e-01,1.762344214589977587e-01,1.746508450556639447e-01,1.717834273986121041e-01,1.676425212442709811e-01,1.623553466179039062e-01,1.561562823762761842e-01,1.493637114549748734e-01,1.423465259306082864e-01,1.354842090507437091e-01,1.291256199407330163e-01,1.235525291837708817e-01,1.189534578503678858e-01,1.154110275976633765e-01,1.129021930781967525e-01,1.113077187728677558e-01,1.104272854141399030e-01,1.099984512951503041e-01,1.097189588555885637e-01,1.092720769968629213e-01,1.083540956745909500e-01,1.067017907162251394e-01,1.041163763258466796e-01,1.004805091264028560e-01,9.576661128722409322e-02,9.003676984533856564e-02,8.343546083893148280e-02,7.617642143205732852e-02,6.852477995296159252e-02,6.077546220939543387e-02,5.322917121582827066e-02,4.616804254855184919e-02,3.983394091761616185e-02,3.441211992244505580e-02,3.002156483200778617e-02,2.671220627828806843e-02,2.446868186473127177e-02,2.321959814421334714e-02,2.285042853435932317e-02,2.321776940472443373e-02,2.416266302201661165e-02,2.552148032498306393e-02,2.713441341033143855e-02,2.885259534596217382e-02,3.054456362663860933e-02,3.210216792549164949e-02,3.344575215456613293e-02,3.452818402424804450e-02,3.533698890740282622e-02,3.589380877696675409e-02,3.625066623894184631e-02,3.648305324783877868e-02,3.668078527196143995e-02,3.693831415033318327e-02,3.734595413661492835e-02,3.798223800207164297e-02,3.890621983135131301e-02,4.014834182896036274e-02,4.170018667583465927e-02,4.350558996687624302e-02,4.545615156175920185e-02,4.739310620018080678e-02,4.911614468033951436e-02,5.039894117668569651e-02,5.101047506049444236e-02,5.074015658429119335e-02,4.942376539349521702e-02,4.696702056370847395e-02,4.336372956505378518e-02,3.870522534877542109e-02,3.317788329797653757e-02,2.704711123802912981e-02,2.062916357786003657e-02,1.425503876453573793e-02,8.232580573140722141e-03,2.813282629033420253e-03,-1.831168661448082709e-03,-5.619863233133194289e-03,-8.559215888811337256e-03,-1.072246818191537054e-02,-1.221048246293303212e-02,-1.309661496775777617e-02,-1.336405742406382435e-02,-1.284775494463852134e-02,-1.119407634412923451e-02,-7.849393863707998867e-03,-2.082733745174393351e-03,6.960477227544481157e-03,2.018233011985439210e-02,3.844418901671656924e-02,6.247572246031453391e-02,9.279005790431880951e-02,1.296129330910328892e-01,1.728313740578041602e-01,2.219643481278943953e-01,2.761551906601245054e-01,3.341848028380106084e-01,3.945065000160206670e-01,4.553055240743286713e-01,5.145856046165905306e-01,5.702823190135204445e-01,6.203991492985932998e-01,6.631552480689063556e-01,6.971254444486411073e-01,7.213494883102393729e-01,7.353928930935267338e-01,0.000000000000000000e+00,0.000000000000000000e+00,0.000000000000000000e+00,0.000000000000000000e+00,0.000000000000000000e+00,0.000000000000000000e+00,0.000000000000000000e+00,0.000000000000000000e+00,0.000000000000000000e+00,0.000000000000000000e+00,0.000000000000000000e+00,0.000000000000000000e+00,0.000000000000000000e+00,0.000000000000000000e+00,0.000000000000000000e+00,0.000000000000000000e+00,0.000000000000000000e+00,0.000000000000000000e+00,0.000000000000000000e+00,0.000000000000000000e+00,0.000000000000000000e+00,0.000000000000000000e+00,0.000000000000000000e+00,0.000000000000000000e+00,0.000000000000000000e+00,0.000000000000000000e+00,0.000000000000000000e+00,0.000000000000000000e+00,0.000000000000000000e+00,0.000000000000000000e+00,0.000000000000000000e+00,0.000000000000000000e+00,0.000000000000000000e+00,0.000000000000000000e+00,0.000000000000000000e+00,0.000000000000000000e+00,0.000000000000000000e+00,0.000000000000000000e+00,0.000000000000000000e+00,0.000000000000000000e+00,0.000000000000000000e+00,0.000000000000000000e+00,0.000000000000000000e+00,0.000000000000000000e+00,0.000000000000000000e+00,0.000000000000000000e+00,0.000000000000000000e+00,0.000000000000000000e+00,0.000000000000000000e+00,0.000000000000000000e+00,0.000000000000000000e+00,0.000000000000000000e+00,0.000000000000000000e+00,0.000000000000000000e+00,0.000000000000000000e+00,0.000000000000000000e+00,0.000000000000000000e+00,0.000000000000000000e+00,0.000000000000000000e+00,0.000000000000000000e+00,0.000000000000000000e+00,0.000000000000000000e+00,0.000000000000000000e+00,0.000000000000000000e+00,0.000000000000000000e+00,0.000000000000000000e+00,0.000000000000000000e+00,0.000000000000000000e+00,0.000000000000000000e+00,0.000000000000000000e+00,0.000000000000000000e+00,0.000000000000000000e+00,0.000000000000000000e+00,0.000000000000000000e+00,0.000000000000000000e+00,0.000000000000000000e+00,0.000000000000000000e+00,0.000000000000000000e+00,0.000000000000000000e+00,0.000000000000000000e+00,0.000000000000000000e+00,0.000000000000000000e+00,0.000000000000000000e+00,0.000000000000000000e+00,0.000000000000000000e+00,0.000000000000000000e+00,0.000000000000000000e+00,0.000000000000000000e+00,0.000000000000000000e+00,0.000000000000000000e+00,0.000000000000000000e+00,0.000000000000000000e+00,0.000000000000000000e+00,0.000000000000000000e+00,0.000000000000000000e+00,0.000000000000000000e+00,0.000000000000000000e+00,0.000000000000000000e+00,0.000000000000000000e+00,0.000000000000000000e+00,0.000000000000000000e+00,0.000000000000000000e+00,0.000000000000000000e+00,0.000000000000000000e+00,0.000000000000000000e+00,0.000000000000000000e+00,0.000000000000000000e+00,0.000000000000000000e+00,0.000000000000000000e+00,0.000000000000000000e+00,0.000000000000000000e+00,0.000000000000000000e+00,0.000000000000000000e+00,0.000000000000000000e+00,0.000000000000000000e+00,0.000000000000000000e+00,0.000000000000000000e+00,0.000000000000000000e+00,0.000000000000000000e+00,0.000000000000000000e+00,0.000000000000000000e+00,0.000000000000000000e+00,0.000000000000000000e+00,0.000000000000000000e+00,0.000000000000000000e+00,0.000000000000000000e+00,0.000000000000000000e+00,0.000000000000000000e+00,0.000000000000000000e+00,0.000000000000000000e+00,0.000000000000000000e+00,0.000000000000000000e+00,0.000000000000000000e+00,0.000000000000000000e+00,0.000000000000000000e+00,0.000000000000000000e+00,0.000000000000000000e+00,0.000000000000000000e+00,0.000000000000000000e+00,0.000000000000000000e+00,0.000000000000000000e+00,0.000000000000000000e+00,0.000000000000000000e+00,0.000000000000000000e+00,0.000000000000000000e+00,0.000000000000000000e+00,0.000000000000000000e+00,0.000000000000000000e+00,0.000000000000000000e+00,0.000000000000000000e+00,0.000000000000000000e+00,0.000000000000000000e+00,0.000000000000000000e+00,0.000000000000000000e+00,0.000000000000000000e+00,0.000000000000000000e+00,0.000000000000000000e+00,0.000000000000000000e+00,0.000000000000000000e+00,0.000000000000000000e+00,0.000000000000000000e+00,0.000000000000000000e+00,0.000000000000000000e+00,0.000000000000000000e+00,0.000000000000000000e+00,0.000000000000000000e+00,0.000000000000000000e+00,0.000000000000000000e+00,0.000000000000000000e+00,0.000000000000000000e+00,0.000000000000000000e+00,0.000000000000000000e+00,0.000000000000000000e+00,0.000000000000000000e+00,0.000000000000000000e+00,0.000000000000000000e+00,0.000000000000000000e+00,0.000000000000000000e+00,0.000000000000000000e+00,0.000000000000000000e+00,0.000000000000000000e+00,0.000000000000000000e+00,0.000000000000000000e+00,0.000000000000000000e+00,0.000000000000000000e+00,0.000000000000000000e+00,0.000000000000000000e+00,0.000000000000000000e+00,0.000000000000000000e+00,0.000000000000000000e+00,0.000000000000000000e+00,0.000000000000000000e+00,0.000000000000000000e+00,0.000000000000000000e+00,0.000000000000000000e+00,0.000000000000000000e+00,0.000000000000000000e+00,0.000000000000000000e+00,0.000000000000000000e+00,0.000000000000000000e+00,0.000000000000000000e+00,0.000000000000000000e+00,0.000000000000000000e+00,0.000000000000000000e+00,0.000000000000000000e+00,0.000000000000000000e+00,0.000000000000000000e+00,0.000000000000000000e+00,0.000000000000000000e+00,0.000000000000000000e+00,0.000000000000000000e+00,0.000000000000000000e+00,0.000000000000000000e+00,0.000000000000000000e+00,0.000000000000000000e+00,0.000000000000000000e+00,0.000000000000000000e+00,0.000000000000000000e+00,0.000000000000000000e+00,0.000000000000000000e+00,0.000000000000000000e+00,0.000000000000000000e+00,0.000000000000000000e+00,0.000000000000000000e+00,0.000000000000000000e+00,0.000000000000000000e+00,0.000000000000000000e+00,0.000000000000000000e+00,0.000000000000000000e+00,0.000000000000000000e+00,0.000000000000000000e+00,0.000000000000000000e+00,0.000000000000000000e+00,0.000000000000000000e+00,0.000000000000000000e+00,0.000000000000000000e+00,0.000000000000000000e+00,0.000000000000000000e+00,0.000000000000000000e+00,0.000000000000000000e+00,0.000000000000000000e+00,0.000000000000000000e+00,0.000000000000000000e+00,0.000000000000000000e+00,0.000000000000000000e+00,0.000000000000000000e+00,0.000000000000000000e+00,0.000000000000000000e+00,0.000000000000000000e+00,0.000000000000000000e+00,0.000000000000000000e+00,0.000000000000000000e+00,0.000000000000000000e+00,0.000000000000000000e+00,0.000000000000000000e+00,0.000000000000000000e+00,0.000000000000000000e+00,0.000000000000000000e+00,0.000000000000000000e+00,0.000000000000000000e+00,0.000000000000000000e+00,0.000000000000000000e+00,0.000000000000000000e+00,0.000000000000000000e+00,0.000000000000000000e+00,0.000000000000000000e+00,0.000000000000000000e+00,0.000000000000000000e+00,0.000000000000000000e+00,0.000000000000000000e+00,0.000000000000000000e+00,0.000000000000000000e+00,0.000000000000000000e+00,0.000000000000000000e+00,0.000000000000000000e+00,0.000000000000000000e+00,0.000000000000000000e+00,0.000000000000000000e+00,0.000000000000000000e+00,0.000000000000000000e+00,0.000000000000000000e+00,0.000000000000000000e+00,0.000000000000000000e+00,0.000000000000000000e+00,0.000000000000000000e+00,0.000000000000000000e+00,0.000000000000000000e+00,0.000000000000000000e+00,0.000000000000000000e+00,0.000000000000000000e+00,0.000000000000000000e+00,0.000000000000000000e+00,0.000000000000000000e+00,0.000000000000000000e+00,0.000000000000000000e+00,0.000000000000000000e+00,0.000000000000000000e+00,0.000000000000000000e+00,0.000000000000000000e+00,0.000000000000000000e+00,0.000000000000000000e+00,0.000000000000000000e+00,0.000000000000000000e+00,0.000000000000000000e+00,0.000000000000000000e+00,0.000000000000000000e+00,0.000000000000000000e+00,0.000000000000000000e+00,0.000000000000000000e+00,0.000000000000000000e+00,0.000000000000000000e+00,0.000000000000000000e+00,0.000000000000000000e+00,0.000000000000000000e+00,0.000000000000000000e+00,0.000000000000000000e+00,0.000000000000000000e+00,0.000000000000000000e+00,0.000000000000000000e+00,0.000000000000000000e+00,0.000000000000000000e+00,0.000000000000000000e+00,0.000000000000000000e+00,0.000000000000000000e+00,0.000000000000000000e+00,0.000000000000000000e+00,0.000000000000000000e+00,0.000000000000000000e+00,0.000000000000000000e+00,0.000000000000000000e+00,0.000000000000000000e+00,0.000000000000000000e+00,0.000000000000000000e+00,0.000000000000000000e+00,0.000000000000000000e+00,0.000000000000000000e+00,0.000000000000000000e+00,0.000000000000000000e+00,0.000000000000000000e+00,0.000000000000000000e+00,0.000000000000000000e+00,0.000000000000000000e+00,0.000000000000000000e+00,0.000000000000000000e+00,0.000000000000000000e+00,0.000000000000000000e+00,0.000000000000000000e+00,0.000000000000000000e+00,0.000000000000000000e+00,0.000000000000000000e+00,0.000000000000000000e+00,0.000000000000000000e+00,0.000000000000000000e+00,0.000000000000000000e+00,0.000000000000000000e+00,0.000000000000000000e+00,0.000000000000000000e+00,0.000000000000000000e+00,0.000000000000000000e+00,0.000000000000000000e+00,0.000000000000000000e+00,0.000000000000000000e+00,0.000000000000000000e+00,0.000000000000000000e+00,0.000000000000000000e+00,0.000000000000000000e+00,0.000000000000000000e+00,0.000000000000000000e+00,0.000000000000000000e+00,0.000000000000000000e+00,0.000000000000000000e+00,0.000000000000000000e+00,0.000000000000000000e+00,0.000000000000000000e+00,0.000000000000000000e+00,0.000000000000000000e+00,0.000000000000000000e+00,0.000000000000000000e+00,0.000000000000000000e+00,0.000000000000000000e+00,0.000000000000000000e+00,0.000000000000000000e+00,0.000000000000000000e+00,0.000000000000000000e+00,0.000000000000000000e+00,0.000000000000000000e+00,0.000000000000000000e+00,0.000000000000000000e+00,0.000000000000000000e+00,0.000000000000000000e+00,0.000000000000000000e+00,0.000000000000000000e+00,0.000000000000000000e+00,0.000000000000000000e+00,0.000000000000000000e+00,0.000000000000000000e+00,0.000000000000000000e+00,0.000000000000000000e+00,0.000000000000000000e+00,0.000000000000000000e+00,0.000000000000000000e+00,0.000000000000000000e+00,0.000000000000000000e+00,0.000000000000000000e+00,0.000000000000000000e+00,0.000000000000000000e+00,0.000000000000000000e+00,0.000000000000000000e+00,0.000000000000000000e+00,0.000000000000000000e+00,0.000000000000000000e+00,0.000000000000000000e+00,0.000000000000000000e+00,0.000000000000000000e+00,0.000000000000000000e+00,0.000000000000000000e+00,0.000000000000000000e+00,0.000000000000000000e+00,0.000000000000000000e+00,0.000000000000000000e+00,0.000000000000000000e+00,0.000000000000000000e+00,0.000000000000000000e+00,0.000000000000000000e+00,0.000000000000000000e+00,0.000000000000000000e+00,0.000000000000000000e+00,0.000000000000000000e+00,0.000000000000000000e+00,0.000000000000000000e+00,0.000000000000000000e+00,0.000000000000000000e+00,0.000000000000000000e+00,0.000000000000000000e+00,0.000000000000000000e+00,0.000000000000000000e+00,0.000000000000000000e+00,0.000000000000000000e+00,0.000000000000000000e+00,0.000000000000000000e+00,0.000000000000000000e+00,0.000000000000000000e+00,0.000000000000000000e+00,0.000000000000000000e+00,0.000000000000000000e+00,0.000000000000000000e+00,0.000000000000000000e+00,0.000000000000000000e+00,0.000000000000000000e+00,0.000000000000000000e+00,0.000000000000000000e+00,0.000000000000000000e+00,0.000000000000000000e+00,0.000000000000000000e+00,0.000000000000000000e+00,0.000000000000000000e+00,0.000000000000000000e+00,0.000000000000000000e+00,0.000000000000000000e+00,0.000000000000000000e+00,0.000000000000000000e+00,0.000000000000000000e+00,0.000000000000000000e+00,0.000000000000000000e+00,0.000000000000000000e+00,0.000000000000000000e+00,0.000000000000000000e+00,0.000000000000000000e+00,0.000000000000000000e+00,0.000000000000000000e+00,0.000000000000000000e+00,0.000000000000000000e+00,0.000000000000000000e+00,0.000000000000000000e+00,0.000000000000000000e+00,0.000000000000000000e+00,0.000000000000000000e+00,0.000000000000000000e+00,0.000000000000000000e+00,0.000000000000000000e+00,0.000000000000000000e+00,0.000000000000000000e+00,0.000000000000000000e+00,0.000000000000000000e+00,0.000000000000000000e+00,0.000000000000000000e+00,0.000000000000000000e+00,0.000000000000000000e+00,0.000000000000000000e+00,0.000000000000000000e+00,0.000000000000000000e+00,0.000000000000000000e+00,0.000000000000000000e+00,0.000000000000000000e+00,0.000000000000000000e+00,0.000000000000000000e+00,0.000000000000000000e+00,0.000000000000000000e+00,0.000000000000000000e+00,0.000000000000000000e+00,0.000000000000000000e+00,0.000000000000000000e+00,0.000000000000000000e+00,0.000000000000000000e+00,0.000000000000000000e+00,0.000000000000000000e+00,0.000000000000000000e+00,0.000000000000000000e+00,0.000000000000000000e+00,0.000000000000000000e+00,0.000000000000000000e+00,0.000000000000000000e+00,0.000000000000000000e+00,0.000000000000000000e+00,0.000000000000000000e+00,0.000000000000000000e+00,0.000000000000000000e+00,0.000000000000000000e+00,0.000000000000000000e+00,0.000000000000000000e+00,0.000000000000000000e+00,0.000000000000000000e+00,0.000000000000000000e+00,0.000000000000000000e+00,0.000000000000000000e+00,0.000000000000000000e+00,0.000000000000000000e+00,0.000000000000000000e+00,0.000000000000000000e+00,0.000000000000000000e+00,0.000000000000000000e+00,0.000000000000000000e+00,0.000000000000000000e+00,0.000000000000000000e+00,0.000000000000000000e+00,0.000000000000000000e+00,0.000000000000000000e+00,0.000000000000000000e+00,0.000000000000000000e+00,0.000000000000000000e+00,0.000000000000000000e+00,0.000000000000000000e+00,0.000000000000000000e+00,0.000000000000000000e+00,0.000000000000000000e+00,0.000000000000000000e+00,0.000000000000000000e+00,0.000000000000000000e+00,0.000000000000000000e+00,0.000000000000000000e+00,0.000000000000000000e+00,0.000000000000000000e+00,0.000000000000000000e+00,0.000000000000000000e+00,0.000000000000000000e+00,0.000000000000000000e+00,0.000000000000000000e+00,0.000000000000000000e+00,0.000000000000000000e+00,0.000000000000000000e+00,0.000000000000000000e+00,0.000000000000000000e+00,0.000000000000000000e+00,0.000000000000000000e+00,0.000000000000000000e+00,0.000000000000000000e+00,0.000000000000000000e+00,0.000000000000000000e+00,0.000000000000000000e+00,0.000000000000000000e+00,0.000000000000000000e+00,0.000000000000000000e+00,0.000000000000000000e+00,0.000000000000000000e+00,0.000000000000000000e+00,0.000000000000000000e+00,0.000000000000000000e+00,0.000000000000000000e+00,0.000000000000000000e+00,0.000000000000000000e+00,0.000000000000000000e+00,0.000000000000000000e+00,0.000000000000000000e+00,0.000000000000000000e+00,0.000000000000000000e+00,0.000000000000000000e+00,0.000000000000000000e+00,0.000000000000000000e+00,0.000000000000000000e+00,0.000000000000000000e+00,0.000000000000000000e+00,0.000000000000000000e+00,0.000000000000000000e+00,0.000000000000000000e+00,0.000000000000000000e+00,0.000000000000000000e+00,0.000000000000000000e+00,0.000000000000000000e+00,0.000000000000000000e+00,0.000000000000000000e+00,0.000000000000000000e+00,0.000000000000000000e+00,0.000000000000000000e+00,0.000000000000000000e+00,0.000000000000000000e+00,0.000000000000000000e+00,0.000000000000000000e+00,0.000000000000000000e+00,0.000000000000000000e+00,0.000000000000000000e+00,0.000000000000000000e+00,0.000000000000000000e+00,0.000000000000000000e+00,0.000000000000000000e+00,0.000000000000000000e+00,0.000000000000000000e+00,0.000000000000000000e+00,0.000000000000000000e+00,0.000000000000000000e+00,0.000000000000000000e+00,0.000000000000000000e+00,0.000000000000000000e+00,0.000000000000000000e+00,0.000000000000000000e+00,0.000000000000000000e+00,0.000000000000000000e+00,0.000000000000000000e+00,0.000000000000000000e+00,0.000000000000000000e+00,0.000000000000000000e+00,0.000000000000000000e+00,0.000000000000000000e+00,0.000000000000000000e+00,0.000000000000000000e+00,0.000000000000000000e+00,0.000000000000000000e+00,0.000000000000000000e+00,0.000000000000000000e+00,0.000000000000000000e+00,0.000000000000000000e+00,0.000000000000000000e+00,0.000000000000000000e+00,0.000000000000000000e+00,0.000000000000000000e+00,0.000000000000000000e+00,0.000000000000000000e+00,0.000000000000000000e+00,0.000000000000000000e+00
