2.630208163678254274e-01,2.589891373040424938e-01,2.492458179723158196e-01,2.344229941203484491e-01,2.154634784924765178e-01,1.935387632429427240e-01,1.699415310253061251e-01,1.459674222805105448e-01,1.228012609331649851e-01,1.014232059859664081e-01,8.254858018102557982e-02,6.660767269351736131e-02,5.376106901729250237e-02,4.393915650988023530e-02,3.689458997998126821e-02,3.226072088281946998e-02,2.961243692267546274e-02,2.852583963027572125e-02,2.863066325194386572e-02,2.964699930104260431e-02,3.139769949624182654e-02,3.379162324736836864e-02,3.678185712150030401e-02,4.031329811562226612e-02,4.427785147679111355e-02,4.849044280437333349e-02,5.269021765926615308e-02,5.656411976936157743e-02,5.978565273152731951e-02,6.205902150105686854e-02,6.315836622323736660e-02,6.295500974671836003e-02,6.143096734247274759e-02,5.867976292571564639e-02,5.489472434005322060e-02,5.034438992823107861e-02,4.533750474019740406e-02,4.018427829324230233e-02,3.516167268995935152e-02,3.048737608378799743e-02,2.630361522614347788e-02,2.267129626932366804e-02,1.957495144681403038e-02,1.693683655698456636e-02,1.463655890370847701e-02,1.253290077146196335e-02,1.048479261553847061e-02,8.368360154072797957e-03,6.089161489969322980e-03,3.591777826881833828e-03,8.687810141044239026e-04,-2.032415298412364787e-03,-5.009356074373187695e-03,-7.914964290252518228e-03,-1.057888185468294426e-02,-1.283586955212306750e-02,-1.455465045975258033e-02,-1.565992937687216147e-02,-1.614217245686250246e-02,-1.605434821776777904e-02,-1.550009326530684024e-02,-1.461924197466483652e-02,-1.357352531040545603e-02,-1.253217460837614990e-02,-1.165746545205792462e-02,-1.109183021977001339e-02,-1.094805406554117018e-02,-1.130268117879828019e-02,-1.219185436517484199e-02,-1.360842257254454672e-02,-1.549943306001684389e-02,-1.776509994912096185e-02,-2.026253863421655782e-02,-2.281687694980055400e-02,-2.523888805502256041e-02,-2.734517611838287524e-02,-2.897636630372144376e-02,-3.001042208611198053e-02,-3.037064525361097417e-02,-3.002973899777300684e-02,-2.901149927065652112e-02,-2.738991215912708194e-02,-2.528342368433497342e-02,-2.284271097785170457e-02,-2.023345385797123766e-02,-1.761835156626247872e-02,-1.514250475592548474e-02,-1.292362885221388577e-02,-1.104603942096913337e-02,-9.557315254740754787e-03,-8.468368570445194976e-03,-7.758398261590125980e-03,-7.384216299981150033e-03,-7.291134237664779680e-03,-7.423295899522031407e-03,-7.733193271225794613e-03,-8.189089191472433485e-03,-8.776629750869794494e-03,-9.491729242447387652e-03,-1.032685962367941440e-02,-1.125825838336117282e-02,-1.224186770302307034e-02,-1.322008666652045236e-02,-1.413505575431544051e-02,-1.494196793230949394e-02,-1.561736502660870940e-02,-1.616053345583355269e-02,-1.658960667756250590e-02,-1.693600413082923042e-02,-1.724007277676347510e-02,-1.754807050525287668e-02,-1.790849406443313988e-02,-1.836627114421635065e-02,-1.895572946225969335e-02,-1.969420830831667205e-02,-2.057626970058892835e-02,-2.156719517346136761e-02,-2.259704870125371287e-02,-2.356021781813898500e-02,-2.432502827575728013e-02,-2.475339328064471087e-02,-2.472557473072483150e-02,-2.416360460533563403e-02,-2.304882032596008642e-02,-2.143178983787758993e-02,-1.943394246508262438e-02,-1.723882743541236412e-02,-1.507005674697277711e-02,-1.315657085532407483e-02,-1.169261689228762689e-02,-1.080354838404173380e-02,-1.052622330217415324e-02,-1.080745184732290719e-02,-1.151872022688065975e-02,-1.248079997843464656e-02,-1.349002380350061876e-02,-1.434153495643663775e-02,-1.484987404585009184e-02,-1.486770501912269490e-02,-1.430098081258004451e-02,-1.311882259727591669e-02,-1.135799261023179123e-02,-9.121612805799268753e-03,-6.571002503845208877e-03,-3.910811286719639498e-03,-1.369826949375812543e-03,8.194696850346023641e-04,2.440212725637677313e-03,3.308010241079894446e-03,3.285723231624420541e-03,2.297765153978360668e-03,3.438927172569916950e-04,-2.491169630376555318e-03,-6.037490038889266331e-03,-1.005198643291678982e-02,-1.424162555345712990e-02,-1.829357592587903605e-02,-2.190723440849760839e-02,-2.482422698677800785e-02,-2.685457128304295088e-02,-2.789744698093253247e-02,-2.795290048157416177e-02,-2.712011933176108544e-02,-2.558064805526805846e-02,-2.356852997432321017e-02,-2.133255363311019337e-02,-1.909914268604915796e-02,-1.704569294962417561e-02,-1.529028565582269718e-02,-1.389631124933832576e-02,-1.288476091041709272e-02,-1.224611160944964056e-02,-1.194725373700021749e-02,-1.193387645415063501e-02,-1.213179972312443573e-02,-1.245019490065386349e-02,-1.278718728289790323e-02,-1.303738083842036904e-02,-1.310219554444509715e-02,-1.290470092850828226e-02,-1.240806083064514322e-02,-1.163219422115044539e-02,-1.066113793056585983e-02,-9.635967490500323140e-03,-8.733548307508578329e-03,-8.136908449670365168e-03,-8.005488766422470467e-03,-8.451739682691538497e-03,-9.526784633635534613e-03,-1.121511617263734779e-02,-1.343698504544856877e-02,-1.605614183262434394e-02,-1.888964994828053190e-02,-2.171724120679084657e-02,-2.429135113806062812e-02,-2.635228513734182848e-02,-2.765130107165298182e-02,-2.797968147783394879e-02,-2.719943092162717402e-02,-2.527076607221169849e-02,-2.226996915599749327e-02,-1.839035759988402741e-02,-1.392302819102954337e-02,-9.221098177862237580e-03,-4.655965773683384476e-03,-5.744452365646944081e-04,2.736261428143891249e-03,5.070827701610304550e-03,6.313346833889707348e-03,6.432624428320691048e-03,5.470596985493189970e-03,3.528159479469958424e-03,7.499392133386399706e-04,-2.691167118461422047e-03,-6.607660064079815682e-03,-1.080693098968507279e-02,-1.509624531397902973e-02,-1.928602490945371603e-02,-2.319592808998257108e-02,-2.666652276387441664e-02,-2.957467686587052225e-02,-3.184676071423676869e-02,-3.346385895266635463e-02,-3.445702701589899164e-02,-3.489561948241216849e-02,-3.487525332272038009e-02,-3.451131582905324346e-02,-3.393864971433952632e-02,-3.331186585912190162e-02,-3.279852446603278432e-02,-3.256132063518779596e-02,-3.273278121726602707e-02,-3.339091588448749037e-02,-3.454372157351425637e-02,-3.612668492748616345e-02,-3.801314050944133716e-02,-4.003356720844359479e-02,-4.199811039557309333e-02,-4.371798552372420377e-02,-4.502476032900456365e-02,-4.578854389020751287e-02,-4.593495591445322795e-02,-4.545842360823023481e-02,-4.442837033698522620e-02,-4.298520161360552122e-02,-4.132454748347891282e-02,-3.967164257330700605e-02,-3.825137015574932992e-02,-3.725984041864913859e-02,-3.684026808091166172e-02,-3.706367029258416518e-02,-3.791578275955891780e-02,-3.929285824214493600e-02,-4.100859094365080781e-02,-4.281316583666398834e-02,-4.442336042714425948e-02,-4.555950651247432648e-02,-4.598290618355053982e-02,-4.552731181265375071e-02,-4.411977087145135812e-02,-4.178872635261361018e-02,-3.865911352603478013e-02,-3.493471206576324872e-02,-3.087008973905521966e-02,-2.673870029373702842e-02,-2.280499461330368419e-02,-1.930431427399115218e-02,-1.642929970827294514e-02,-1.431969271077418795e-02,-1.305348021712223784e-02,-1.263990276064870868e-02,-1.301759560604757483e-02,-1.406170571223046284e-02,-1.560085428629022844e-02,-1.744047631453491190e-02,-1.938695961836482684e-02,-2.126762623096245183e-02,-2.294320824105778450e-02,-2.431195345164237007e-02,-2.530763081144205701e-02,-2.589499007435366873e-02,-2.606504260162135003e-02,-2.583121832636787324e-02,-2.522652226704965098e-02,-2.430047693964222308e-02,-2.311445364224787649e-02,-2.173601730411228727e-02,-2.023470423175751168e-02,-1.868080706239987412e-02,-1.714625570510609417e-02,-1.570498814277053456e-02,-1.442995113442008433e-02,-1.338511273462339619e-02,-1.261447451761531571e-02,-1.213393746355956836e-02,-1.193069023453031084e-02,-1.196840829097815459e-02,-1.219291376008969571e-02,-1.253700616524928112e-02,-1.292813921244521588e-02,-1.330020199299882834e-02,-1.360478762271147626e-02,-1.381682761136659304e-02,-1.393363955482440283e-02,-1.396901689770147642e-02,-1.394413883688014680e-02,-1.387774530734280608e-02,-1.377926053020606979e-02,-1.364767811793516326e-02,-1.347536300709870592e-02,-1.325303807022278589e-02,-1.297337547314511216e-02,-1.263359507742725825e-02,-1.223821861559488966e-02,-1.180156901177601553e-02,-1.134810591454598824e-02,-1.090854359882411848e-02,-1.051117435822159635e-02,-1.017089521202701151e-02,-9.881675020534363627e-03,-9.618091048108430921e-03,-9.346562188764867551e-03,-9.041190684116271609e-03,-8.697401130635478567e-03,-8.338179608818007543e-03,-8.010399002050876474e-03,-7.772320087774134412e-03,-7.676922498844462352e-03,-7.757006475842979053e-03,-8.016652149601280128e-03,-8.430864332541422937e-03,-8.952130311664400000e-03,-9.520434363227787619e-03,-1.007321300947368846e-02,-1.055343927343469455e-02,-1.091571852964285522e-02,-1.113064285329420922e-02,-1.118705799595308761e-02,-1.109196409282159866e-02,-1.086907549691611824e-02,-1.055755103922031632e-02,-1.021066164608016962e-02,-9.892567081416116584e-03,-9.672223201347923335e-03,-9.615302448469713673e-03,-9.775586956233170075e-03,-1.018669677040108697e-02,-1.085489339566171260e-02,-1.175425607746348813e-02,-1.282525109547570479e-02,-1.397671376942344161e-02,-1.509138726142141181e-02,-1.603615118174997814e-02,-1.667788129204596931e-02,-1.690386523396850832e-02,-1.664237097373900964e-02,-1.587602479268380995e-02,-1.464187491436429005e-02,-1.301874355382846328e-02,-1.110951098869768401e-02,-9.026784384591552551e-03,-6.884923944723996339e-03,-4.795729499394461859e-03,-2.864037129890093306e-03,-1.181815789476812172e-03,1.786175794673035147e-04,1.170512855911810899e-03,1.774915364965655743e-03,1.997410040510862270e-03,1.861426428061564286e-03,1.402513622546258665e-03,6.661015129761161183e-04,-2.921313706088603311e-04,-1.405962860580556870e-03,-2.600872780638187071e-03,-3.799592506091444000e-03,-4.929468959377273155e-03,-5.929119338242420240e-03,-6.752865958555401976e-03,-7.372680140836556338e-03,-7.776938969944856804e-03,-7.964724283157965240e-03,-7.936137149203817062e-03,-7.682534738224287667e-03,-7.183079300432502860e-03,-6.412872025165826037e-03,-5.361983194021165307e-03,-4.057003629359686760e-03,-2.573459395420727575e-03,-1.031489770143557451e-03,4.244735680714886933e-04,1.654571012458780615e-03,2.551556691429098835e-03,3.060410872915754824e-03,3.185500487279056478e-03,2.985556132877785485e-03,2.559855068755489786e-03,2.029548036689901927e-03,1.517280881709277829e-03,1.128391871376520491e-03,9.373778902592887945e-04,9.811295479635342119e-04,1.256705658377187292e-03,1.721204207294591481e-03,2.294736667049485004e-03,2.868904549570509138e-03,3.320641268950054979e-03,3.529063401499262041e-03,3.393527519466601160e-03,2.851768842971262857e-03,1.895444184727322016e-03,5.785502809514299219e-04,-9.850196954239310698e-04,-2.635160957243826846e-03,-4.187423595531487852e-03,-5.458856579862290774e-03,-6.294357679975007280e-03,-6.589821691067644996e-03,-6.307044222736703579e-03,-5.476506947522118834e-03,-4.188695164937062364e-03,-2.578142534402900251e-03,-8.039463892198161436e-04,9.712969193717431969e-04,2.601762402710182127e-03,3.973800065464488419e-03,5.012863441842325962e-03,5.681800236823968293e-03,5.974027098330779960e-03,5.905956107398386591e-03,5.511021968504713556e-03,4.835592860741352861e-03,3.936417063624715953e-03,2.878657556400212539e-03,1.732405883983741254e-03,5.657399265510974556e-04,-5.647599664296939397e-04,-1.621941046431170765e-03,-2.590803660901825917e-03,-3.475825327285787542e-03,-4.294957509643755438e-03,-5.072540794121132950e-03,-5.832874642182606616e-03,-6.595024564385405276e-03,-7.368378302966975373e-03,-8.148980092187240593e-03,-8.917790880478504434e-03,-9.641544792785020079e-03,-1.027519782927744339e-02,-1.076446665696801849e-02,-1.104826228503251635e-02,-1.106197909046112600e-02,-1.074225965650249699e-02,-1.003301852587583365e-02,-8.892081505754529866e-03,-7.297570833821033671e-03,-5.253364267362439430e-03,-2.793508224074743237e-03,1.461529771410602103e-05,3.069160440188425671e-03,6.235360573171391980e-03,9.349612775064238684e-03,1.222644496586897285e-02,1.467038729397433447e-02,1.649455764855767281e-02,1.754439659734696386e-02,1.772125574492103284e-02,1.699921339926628236e-02,1.543011308721675690e-02,1.313592805929817038e-02,1.029258201229843461e-02,7.112035141391695285e-03,3.827244387576030776e-03,6.793867487098339620e-04,-2.096487014345327620e-03,-4.289436549890878261e-03,-5.731758037517329513e-03,-6.314750042905029406e-03,-5.999015266863528574e-03,-4.819545643543850753e-03,-2.884840337820428809e-03,-3.681376911631762685e-04,2.509342727729977317e-03,5.500515070129039820e-03,8.356084484588794173e-03,1.084590647566651724e-02,1.277510748011507699e-02,1.399421985406532065e-02,1.440474615406501027e-02,1.396215471959030147e-02,1.267752100679958582e-02,1.061770501711063047e-02,7.903102770773226884e-03,4.702339151919534936e-03,1.223515977853127787e-03,-2.299132397726506415e-03,-5.623744010191253188e-03,-8.522249880757292589e-03,-1.080096289225749087e-02,-1.231777230913010980e-02,-1.299445279264544242e-02,-1.282275502193683074e-02,-1.186359331982462205e-02,-1.023953965663453383e-02,-8.121532164133950238e-03,-5.711593490354819301e-03,-3.223655327021646491e-03,-8.637997325019840375e-04,1.189008219505324369e-03,2.799286486665528845e-03,3.885121467949195512e-03,4.420402611114486631e-03,4.431181157265508957e-03,3.989462119996795529e-03,3.205410805322753045e-03,2.216397138370368274e-03,1.171836658818569679e-03,2.152297147548143852e-04,-5.337215727005065061e-04,-9.940369010671115581e-04,-1.133069424352099036e-03,-9.692041863180150384e-04,-5.670219198692790733e-04,-2.562483505549281612e-05,5.373237730868343819e-04,1.001853472177907916e-03,1.258789859959786716e-03,1.218786803340938607e-03,8.190001293146821843e-04,2.945769827108594442e-05,-1.141464119108483730e-03,-2.645811119450686404e-03,-4.401590888667303303e-03,-6.303704174748209210e-03,-8.236205321168529186e-03,-1.008284588148132717e-02,-1.173582539399868271e-02,-1.310427129154879619e-02,-1.412269306054981209e-02,-1.475733070766082483e-02,-1.500824038383639057e-02,-1.490724283804361651e-02,-1.451298341240619787e-02,-1.390346227086916055e-02,-1.316659728618948220e-02,-1.239078370236544775e-02,-1.165687551482264689e-02,-1.103090978370484601e-02,-1.055645498844713301e-02,-1.024709968336871488e-02,-1.008095321228277136e-02,-9.999141572619298785e-03,-9.910293931589084226e-03,-9.703105659721674922e-03,-9.267485657227625406e-03,-8.520523453317439475e-03,-7.428865677640553687e-03,-6.018721116291298953e-03,-4.370180884219014399e-03,-2.599471972861201654e-03,-8.360564409725660317e-04,7.992101067386806791e-04,2.210586435355938427e-03,3.336075769085717398e-03,4.147735624105073661e-03,4.645541308626845861e-03,4.847899323071756111e-03,4.781907462383399102e-03,4.475773687172326584e-03,3.954427397807739816e-03,3.237948242211665262e-03,2.342012678502345541e-03,1.279977455553439657e-03,6.654835562044246380e-05,-1.277621883878002742e-03,-2.722226990773651389e-03,-4.226046040264583130e-03,-5.737402126829061963e-03,-7.194178481901099612e-03,-8.523025780727598935e-03,-9.640420404918775832e-03,-1.045874943318938696e-02,-1.089793844937615545e-02,-1.089972489015673084e-02,-1.044010844384522449e-02,-9.536645388269752999e-03,-8.249490191770139647e-03,-6.676266005227476583e-03,-4.941365340251190584e-03,-3.181854219823398219e-03,-1.533641889874174215e-03,-1.199915643108408236e-04,9.591610209907610370e-04,1.639524494020020698e-03,1.905691536417012961e-03,1.800311272107277434e-03,1.422182960091595552e-03,9.093189154918330554e-04,4.105483505511588476e-04,5.500754472559485526e-05,-7.207048457150793915e-05,5.588316676650847351e-05,4.007799949475772134e-04,8.621512538570532368e-04,1.288862333862497104e-03,1.500544321587179335e-03,1.315530309668193299e-03,5.798104487354652833e-04,-8.076594269619323486e-04,-2.876307651369807740e-03,-5.574301248776231642e-03,-8.769677146200863943e-03,-1.226281301545263831e-02,-1.580893854476145971e-02,-1.914672620972229095e-02,-2.202684114526747006e-02,-2.423465081131907783e-02,-2.560445036758468920e-02,-2.602729828585680430e-02,-2.545756728952008191e-02,-2.392097026632288362e-02,-2.152070045013662267e-02,-1.843489624298503410e-02,-1.490174636889840878e-02,-1.119506277944015173e-02,-7.596870529104741282e-03,-4.372312244795660899e-03,-1.748562356966646726e-03,1.034181352878679223e-04,1.085329144667488820e-03,1.183985636589632599e-03,4.750599673968605957e-04,-8.852887724656873609e-04,-2.680797353025730131e-03,-4.664180496956328928e-03,-6.589298162071452122e-03,-8.240202543328354820e-03,-9.452630535513106141e-03,-1.012670165253519786e-02,-1.023242930670369318e-02,-9.810570410389671259e-03,-8.969974435838743917e-03,-7.880081033455546211e-03,-6.755393854152298531e-03,-5.829725935588211949e-03,-5.322015711557282966e-03,-5.399884862174237146e-03,-6.149439069868770959e-03,-7.558964920178007189e-03,-9.519754843938226657e-03,-1.184193500511190530e-02,-1.428048097388100179e-02,-1.656656131253370079e-02,-1.844008350279683836e-02,-1.967961146674411521e-02,-2.012547019137826687e-02,-1.969258894341510691e-02,-1.837264609807661916e-02,-1.622848442704260055e-02,-1.338510764803688656e-02,-1.001993436683920775e-02,-6.351473442486908066e-03,-2.623666883445240332e-03,9.148532656841599792e-04,4.034017731404961754e-03,6.544126860797323114e-03,8.312230993239052082e-03,9.269915688298737549e-03,9.412107750966920011e-03,8.789659054418251169e-03,7.499297243364912678e-03,5.673514849714110866e-03,3.471175436734418116e-03,1.067123313316171085e-03,-1.362024810905215896e-03,-3.655674506669424114e-03,-5.685435220170431334e-03,-7.363731912086756912e-03,-8.643615797228271572e-03,-9.513212272451341059e-03,-9.988956894272701253e-03,-1.011003487177770076e-02,-9.934273262109742306e-03,-9.534121015603422636e-03,-8.991613950558799070e-03,-8.392737448079836196e-03,-7.821849431864081464e-03,-7.355646529919212216e-03,-7.055888932166947541e-03,-6.961634909378018599e-03,-7.083245777949100271e-03,-7.399945368093208478e-03,-7.861068679506585249e-03,-8.390888088498821978e-03,-8.897851019773138012e-03,-9.287909947523334542e-03,-9.478307917887283593e-03,-9.407406840292394795e-03,-9.039576970234686551e-03,-8.367427151403802887e-03,-7.413448030198603600e-03,-6.230921469855693791e-03,-4.902430648392503906e-03,-3.534822682801479817e-03,-2.251207346804866803e-03,-1.181109268749337086e-03,-4.485395373096091550e-04,-1.571288334870915777e-04,-3.738554374177629038e-04,-1.116326683473937553e-03,-2.348730162784605936e-03,-3.987804329974688373e-03,-5.916543824234250099e-03,-8.002665966736844175e-03,-1.011901458173835970e-02,-1.216145980992375600e-02,-1.405860964514644290e-02,-1.577041370839936396e-02,-1.727797568562474198e-02,-1.856987676512953517e-02,-1.962996335910676543e-02,-2.042990736721429085e-02,-2.092791126943305963e-02,-2.107362660180971126e-02,-2.081947749789370833e-02,-2.013773130309865281e-02,-1.903899593019683922e-02,-1.758457617186534247e-02,-1.588590559245641951e-02,-1.408914418587159552e-02,-1.234974877832562337e-02,-1.080634296252017297e-02,-9.562113586713978305e-03,-8.676488568020989181e-03,-8.164733746572604492e-03,-8.001354456122837869e-03,-8.124291996275557343e-03,-8.439632723963738647e-03,-8.829567155031133735e-03,-9.166612003611400439e-03,-9.333295862104021984e-03,-9.242391737878738120e-03,-8.852391703151029842e-03,-8.175292670895584549e-03,-7.275769150122060255e-03,-6.261807064521088435e-03,-5.267873919116330093e-03,-4.432936090218824766e-03,-3.877206826000085833e-03,-3.683267812009830087e-03,-3.887208444300937257e-03,-4.482118742725555750e-03,-5.431322317710954480e-03,-6.684974006713909588e-03,-8.192522950605546361e-03,-9.905712130572135246e-03,-1.177190253811162893e-02,-1.372297605354657300e-02,-1.566718213500597687e-02,-1.748853789384383767e-02,-1.905360828228809880e-02,-2.022300673663758250e-02,-2.086545364925107213e-02,-2.087307368503464253e-02,-2.017613893026821287e-02,-1.875447140869720281e-02,-1.664274770101090151e-02,-1.392817506174175157e-02,-1.074032498856854895e-02,-7.234125699172406707e-03,-3.568656790987279927e-03,1.139916556375737461e-04,3.704779077776992370e-03,7.134812555063959130e-03,1.037333851385207305e-02,1.342084219029715531e-02,1.630229922622278976e-02,1.906111975348531717e-02,2.174944273214221221e-02,2.441287577975815790e-02,2.707547770102916931e-02,2.973292772899911729e-02,3.235601558409524625e-02,3.490101985157073594e-02,3.732250007963239247e-02,3.958469879567946825e-02,4.166827621345251670e-02,4.357090249247929509e-02,4.530375837754571644e-02,4.688845182668730655e-02,4.835768367066316936e-02,4.975900372179376668e-02,5.115693542549741568e-02,5.262770699476905512e-02,5.424476661599057781e-02,5.605976157814956951e-02,5.808665004730902137e-02,6.029329003370991619e-02,6.259969762910536084e-02,6.488090888730839445e-02,6.697437615468140870e-02,6.869280222747257969e-02,6.984229122382247523e-02,7.024446637655451520e-02,6.976067994847495735e-02,6.831630688011289254e-02,6.592236408485283028e-02,6.268975747793710529e-02,5.882996550862142071e-02,5.463804983611507404e-02,5.046029724352642937e-02,4.665508171306501778e-02,4.355632692599981787e-02,4.144485087950414148e-02,4.052857021910341584e-02,4.093054873708021346e-02,4.268358048352845213e-02,4.572961863926139348e-02,4.992193419316642844e-02,5.502985774955947151e-02,6.074914375590071552e-02,6.672059885021687509e-02,7.255604389618038053e-02,7.786839544075632724e-02,8.230192730482624452e-02,8.555788626153350285e-02,8.741180589076545659e-02,8.772383926471770399e-02,8.644734130113029824e-02,8.363845844470990665e-02,7.946325185895976306e-02,7.419501438596649845e-02,6.819509364970874343e-02,6.187524087292609054e-02,5.564703861658487627e-02,4.987025732378883719e-02,4.481255379360686575e-02,4.062779489828789725e-02,3.735338261530753851e-02,3.492226099013690660e-02,3.318445664382348864e-02,3.193469905598020353e-02,3.094413976398449617e-02,2.999365767442828748e-02,2.890410713585362182e-02,2.755787415147495020e-02,2.590853125287265191e-02,2.397921426527743413e-02,2.185172974728053288e-02,1.964752566203700063e-02,1.750185847476689455e-02,1.553475169323472946e-02,1.382484257196041691e-02,1.239333327394371610e-02,1.120345938567787573e-02,1.017537582065178824e-02,9.210221762759145114e-03,8.214674322485250244e-03,7.118737391034586637e-03,5.882747890778134217e-03,4.493699746602373112e-03,2.954737444673318815e-03,1.273088315332013666e-03,-5.494543808573842600e-04,-2.521722493219329640e-03,-4.664387422316565272e-03,-7.008253517094212813e-03,-9.589695318880544009e-03,-1.244239777101806450e-02,-1.558551739796077730e-02,-1.901049046678429319e-02,-2.267041727110646193e-02,-2.647635671460194656e-02,-3.030295805292031186e-02,-3.400204700432893357e-02,-3.742011130774401673e-02,-4.041603510249662523e-02,-4.287692358935658865e-02,-4.473000558015794575e-02,-4.594839130725470594e-02,-4.655004477269225616e-02,-4.659173384710994792e-02,-4.616015114421982701e-02,-4.536128449197329021e-02,-4.430937941541147201e-02,-4.311770877041733868e-02,-4.189141483500902902e-02,-4.071961497384189027e-02,-3.966527544381874548e-02,-3.875660514825760017e-02,-3.798605472041919479e-02,-3.731938224673982119e-02,-3.671175647900926792e-02,-3.612460693775236542e-02,-3.553680944932997160e-02,-3.494680654554424559e-02,-3.436673381921263176e-02,-3.381268193101504005e-02,-3.329601847976286499e-02,-3.281986112400210598e-02,-3.238266172573688734e-02,-3.198797684861176549e-02,-3.165686388787464917e-02,-3.143789757354573111e-02,-3.141023919391640329e-02,-3.167753791656265777e-02,-3.235349765235359665e-02,-3.354203119562100543e-02,-3.531585079486228296e-02,-3.769799471162706833e-02,-4.065053236627086397e-02,-4.407259452300492375e-02,-4.780756510677997007e-02,-5.165818697418798205e-02,-5.540732198684590604e-02,-5.884106507823624183e-02,-6.177165514149317305e-02,-6.405963354302197932e-02,-6.563489912155517914e-02,-6.651342065512665103e-02,-6.680310615042892031e-02,-6.669315478798966412e-02,-6.642724814411060663e-02,-6.626710568381627420e-02,-6.645382401441608800e-02,-6.717227734361702618e-02,-6.852385817555931014e-02,-7.051324269150986701e-02,-7.305140777952411069e-02,-7.597202106766613727e-02,-7.905610854621382411e-02,-8.206066547112053633e-02,-8.474832338831357614e-02,-8.691578630156378271e-02,-8.841813515309678018e-02,-8.918563109505475706e-02,-8.923090830160175513e-02,-8.864653641092481995e-02,-8.759389185275497092e-02,-8.628429851493472913e-02,-8.495386522973558119e-02,-8.383415044045366971e-02,-8.312067824657692894e-02,-8.294084438969850925e-02,-8.332306301940402282e-02,-8.416994516319085962e-02,-8.523883329521698970e-02,-8.613321224873526916e-02,-8.630920966017227580e-02,-8.510185337140854789e-02,-8.177375176092202547e-02,-7.558387544058065011e-02,-6.586847251713792706e-02,-5.212246549088592196e-02,-3.406891018106757846e-02,-1.170635373818056796e-02,1.467072760942170380e-02,4.447615883261563097e-02,7.685374911060136038e-02,1.107095969087132648e-01,1.447527532463655509e-01,1.775473197229095190e-01,2.075829982130598661e-01,2.333706410736646197e-01,2.535609816263870164e-01,2.670718648016306984e-01,0.000000000000000000e+00,0.000000000000000000e+00,0.000000000000000000e+00,0.000000000000000000e+00,0.000000000000000000e+00,0.000000000000000000e+00,0.000000000000000000e+00,0.000000000000000000e+00,0.000000000000000000e+00,0.000000000000000000e+00,0.000000000000000000e+00,0.000000000000000000e+00,0.000000000000000000e+00,0.000000000000000000e+00,0.000000000000000000e+00,0.000000000000000000e+00,0.000000000000000000e+00,0.000000000000000000e+00,0.000000000000000000e+00,0.000000000000000000e+00,0.000000000000000000e+00,0.000000000000000000e+00,0.000000000000000000e+00,0.000000000000000000e+00,0.000000000000000000e+00,0.000000000000000000e+00,0.000000000000000000e+00,0.000000000000000000e+00,0.000000000000000000e+00,0.000000000000000000e+00,0.000000000000000000e+00,0.000000000000000000e+00,0.000000000000000000e+00,0.000000000000000000e+00,0.000000000000000000e+00,0.000000000000000000e+00,0.000000000000000000e+00,0.000000000000000000e+00,0.000000000000000000e+00,0.000000000000000000e+00,0.000000000000000000e+00,0.000000000000000000e+00,0.000000000000000000e+00,0.000000000000000000e+00,0.000000000000000000e+00,0.000000000000000000e+00,0.000000000000000000e+00,0.000000000000000000e+00
2.732023399809545561e-01,2.717157339108927094e-01,2.628816468857601008e-01,2.474711658552279092e-01,2.267016750691559501e-01,2.021327376239012708e-01,1.755226233717785134e-01,1.486618806148625738e-01,1.232047161958357978e-01,1.005217806129851260e-01,8.159648783184969556e-02,6.697777924603945388e-02,5.678814815176563141e-02,5.077464249325040757e-02,4.838727197821120901e-02,4.887198682009152167e-02,5.136940603473376388e-02,5.501208764381719518e-02,5.901204071477739871e-02,6.272928436649974349e-02,6.571394289574776504e-02,6.771830293109069865e-02,6.868027789227985902e-02,6.868474754428303963e-02,6.791257544833774473e-02,6.658743375733246206e-02,6.492879917384224153e-02,6.311750019777448428e-02,6.127748629466549246e-02,5.947289438123647826e-02,5.771545071861866605e-02,5.597698374822940304e-02,5.420406255633763298e-02,5.233273794018943048e-02,5.030036059104441015e-02,4.805147225633221025e-02,4.553751365386179972e-02,4.271345503455099141e-02,3.953583116100207323e-02,3.596550658368868891e-02,3.197571877291274789e-02,2.756317776436775779e-02,2.275853481687755558e-02,1.763300772651215167e-02,1.230034146093606298e-02,6.915318837431959006e-03,1.668993730700355817e-03,-3.221883779397704834e-03,-7.534083562863605130e-03,-1.106515702401107346e-02,-1.366317145170264924e-02,-1.525033008919959333e-02,-1.583366921436607858e-02,-1.550152185453939312e-02,-1.440917937725949040e-02,-1.275902027015828923e-02,-1.078009655954313348e-02,-8.710145701107778471e-03,-6.780272863869947313e-03,-5.201068642986546482e-03,-4.148998597435824866e-03,-3.752708697269896334e-03,-4.080106421226367165e-03,-5.128624223592918516e-03,-6.822406555003393547e-03,-9.020084497097869206e-03,-1.153421974571190722e-02,-1.415901815618033494e-02,-1.669952571346485296e-02,-1.899565810304306226e-02,-2.093691112453087075e-02,-2.246650019033613610e-02,-2.357681474335033764e-02,-2.430017741960817379e-02,-2.469781835197792583e-02,-2.484735799667926043e-02,-2.482890893428751564e-02,-2.471213377126999997e-02,-2.454759655821237702e-02,-2.436394242511637567e-02,-2.416950086946789006e-02,-2.395507727426152839e-02,-2.369551181120147995e-02,-2.335094004311389151e-02,-2.287158620533980002e-02,-2.220882951350966472e-02,-2.133078721030251881e-02,-2.023693380406862974e-02,-1.896594082194685837e-02,-1.759329472742322126e-02,-1.621908912136059422e-02,-1.495054813719114660e-02,-1.388553370335531521e-02,-1.310045869995241953e-02,-1.264156788154903975e-02,-1.251780170936312407e-02,-1.269703483312037938e-02,-1.310977954316849999e-02,-1.366148401231752352e-02,-1.425011992659151044e-02,-1.478475495806619300e-02,-1.520150578037683664e-02,-1.547287996229865237e-02,-1.560741927595154198e-02,-1.564059485252743131e-02,-1.562171019252346985e-02,-1.560156907279812259e-02,-1.562271616200236815e-02,-1.571173803462996496e-02,-1.587346464070155463e-02,-1.608838352365075594e-02,-1.631475832791838207e-02,-1.649595840774042282e-02,-1.657238283844687451e-02,-1.649556919447559000e-02,-1.624006738796340485e-02,-1.580923338266673056e-02,-1.523464102558938667e-02,-1.457143698342744202e-02,-1.389094212531437680e-02,-1.326933775537833884e-02,-1.277185595365971059e-02,-1.243637552821998116e-02,-1.226348009330524916e-02,-1.221717127662912995e-02,-1.223459434158978565e-02,-1.224039669577479603e-02,-1.216215692790270295e-02,-1.194416207767364478e-02,-1.155667784987842589e-02,-1.099879440710233025e-02,-1.029585222847059951e-02,-9.494822617116170649e-03,-8.660195330714050635e-03,-7.870417128725016101e-03,-7.213801583436647673e-03,-6.783286576331709269e-03,-6.670036362795354369e-03,-6.956140395235571247e-03,-7.706627595493588216e-03,-8.960935328521473647e-03,-1.072424662356884217e-02,-1.295999371969418223e-02,-1.558600171506500584e-02,-1.847700145541189207e-02,-2.147462405633338012e-02,-2.440334710576271687e-02,-2.708888912860760514e-02,-2.937486689940343315e-02,-3.113403250853950463e-02,-3.227263272471336125e-02,-3.273001129200619336e-02,-3.247747857255968429e-02,-3.151881936314326893e-02,-2.989165116434946631e-02,-2.766669620643128630e-02,-2.494206346407196184e-02,-2.183224599662511242e-02,-1.845536367642077943e-02,-1.492457157380329934e-02,-1.134786755189379735e-02,-7.834384218547351883e-03,-4.499576803893790000e-03,-1.462491370562091003e-03,1.165496796333458616e-03,3.295681132902783788e-03,4.874945200911408490e-03,5.893017220428010440e-03,6.383192247645724446e-03,6.417012090031254737e-03,6.093325992523200042e-03,5.522432772577789799e-03,4.808105900470569655e-03,4.032433359585576790e-03,3.247131208871643394e-03,2.470932924355200792e-03,1.690463153475042692e-03,8.636595829153624832e-04,-7.272754730822042892e-05,-1.190069100738050910e-03,-2.550231162935269469e-03,-4.186983079448249219e-03,-6.090753231985085621e-03,-8.200391872063022072e-03,-1.040519850260969090e-02,-1.255928594794753460e-02,-1.450607026464218081e-02,-1.610537488428946673e-02,-1.725448277467459685e-02,-1.789881887565265145e-02,-1.803411539468597821e-02,-1.770501244136361146e-02,-1.700263306019726695e-02,-1.605852884610867171e-02,-1.503054949682721374e-02,-1.408022330182624043e-02,-1.334748770915956256e-02,-1.293139075739628031e-02,-1.288253534339759906e-02,-1.320729858084214794e-02,-1.387929875975330886e-02,-1.485203235761937447e-02,-1.606799064439419847e-02,-1.746294560726042999e-02,-1.896731123580421355e-02,-2.050756114044814324e-02,-2.200966176649373982e-02,-2.340456564755624344e-02,-2.463416066962419507e-02,-2.565575388488611566e-02,-2.644456011171267967e-02,-2.699534230628791720e-02,-2.732411114697152685e-02,-2.746913579914972772e-02,-2.749016950096880296e-02,-2.746567764542438839e-02,-2.748773777957535386e-02,-2.765366265565552539e-02,-2.805404350191334495e-02,-2.875843447370336411e-02,-2.980127737695922180e-02,-3.117159268070042455e-02,-3.281017579757718183e-02,-3.461691815448427606e-02,-3.646772110887065710e-02,-3.823632839788698029e-02,-3.981408985345166740e-02,-4.112159014636981164e-02,-4.210964344573336904e-02,-4.275218551638332309e-02,-4.303751891122842982e-02,-4.296417821748625687e-02,-4.254357345037513422e-02,-4.180703343350281043e-02,-4.081286567361253059e-02,-3.964960174734601106e-02,-3.843303066253377087e-02,-3.729630583073860473e-02,-3.637493789159004093e-02,-3.579106774198573954e-02,-3.564172604554006335e-02,-3.599281751236457078e-02,-3.687625782304229660e-02,-3.828582207917146513e-02,-4.016992050294583561e-02,-4.242432009603372411e-02,-4.489028184056920862e-02,-4.736187983003039420e-02,-4.960248345831688027e-02,-5.136781148436614375e-02,-5.243302411396351392e-02,-5.262211788197256740e-02,-5.183662019469731375e-02,-5.007771133680832126e-02,-4.745472348392774931e-02,-4.417519537935931523e-02,-4.051620455895495881e-02,-3.678213515164373976e-02,-3.325889521945561700e-02,-3.017599165648417875e-02,-2.768416271110308788e-02,-2.584970964441650823e-02,-2.466123433878485496e-02,-2.404331710163811267e-02,-2.387451551141235584e-02,-2.400916097665469970e-02,-2.430042341040517320e-02,-2.461897584665464697e-02,-2.486189652279801113e-02,-2.495109569099512176e-02,-2.482682137470642106e-02,-2.444459342686788189e-02,-2.377978301669246911e-02,-2.283640184238563964e-02,-2.165266076391974756e-02,-2.029818164644182216e-02,-1.886320338318700496e-02,-1.744430603036405472e-02,-1.613174724716080408e-02,-1.500092950750437325e-02,-1.410750435108563614e-02,-1.348460577598737005e-02,-1.314133411694453669e-02,-1.306223022039555877e-02,-1.320791483617207024e-02,-1.351773323869894829e-02,-1.391548276158308638e-02,-1.431842774570014215e-02,-1.464815085268639759e-02,-1.484038823495847058e-02,-1.485126983228164319e-02,-1.465965611935448817e-02,-1.426732185842787687e-02,-1.369835595496768019e-02,-1.299729693635107326e-02,-1.222492525896333102e-02,-1.145199338184086160e-02,-1.075253491744197244e-02,-1.019826909722834803e-02,-9.854699175417066040e-03,-9.778700725239274430e-03,-1.001687501527446546e-02,-1.060390238286322215e-02,-1.156029605611246132e-02,-1.288870873521548964e-02,-1.456791057288873460e-02,-1.654484472241561990e-02,-1.872718508140204866e-02,-2.097999035621476299e-02,-2.312972368175003277e-02,-2.497727789528118511e-02,-2.631884316367786442e-02,-2.697038240731960274e-02,-2.679057484793152810e-02,-2.569911698253876317e-02,-2.368931430984208206e-02,-2.083388818577423460e-02,-1.728247332649164927e-02,-1.325016801420112952e-02,-8.998109951409385965e-03,-4.807980959707401983e-03,-9.527336703541339517e-04,2.333114190848984467e-03,4.878836104000751697e-03,6.593641095743735768e-03,7.470920892720377474e-03,7.581359679061712431e-03,7.058065876761824252e-03,6.076835423109907403e-03,4.833612937151495446e-03,3.521380987962724387e-03,2.309663203397120321e-03,1.329501290013271721e-03,6.649076564610483442e-04,3.504306794707912000e-04,3.744802930972525291e-04,6.877143870001361159e-04,1.214379770384975453e-03,1.863985208473779983e-03,2.541948008121056382e-03,3.159160139402128562e-03,3.640205910360414746e-03,3.928992020210434095e-03,3.990873856627697412e-03,3.812188954608834029e-03,3.399202918750391343e-03,2.777874532535171831e-03,1.994944227009460506e-03,1.119876160993716089e-03,2.452658625200336844e-04,-5.182215183269207968e-04,-1.055028276063710692e-03,-1.264558798384339804e-03,-1.082511068402345180e-03,-4.979219793520686449e-04,4.378330119219224275e-04,1.611854385484456876e-03,2.861016909941439985e-03,3.993070172467224135e-03,4.814262093054932391e-03,5.157702708068506725e-03,4.906858299457815369e-03,4.011197845565823289e-03,2.493446486955302327e-03,4.489375800293095233e-04,-1.962211247606149723e-03,-4.529092148598856497e-03,-7.008827813098778003e-03,-9.149375946473749591e-03,-1.071590385976915402e-02,-1.151878442399026196e-02,-1.143952711338451327e-02,-1.045147311044691829e-02,-8.632588592698399108e-03,-6.165900437677675552e-03,-3.322540769318787189e-03,-4.272673912875679398e-04,2.186025855369801759e-03,4.217785844665449500e-03,5.436925235907904760e-03,5.702345500693555350e-03,4.972347808996213127e-03,3.303972356861512635e-03,8.443520754881084223e-04,-2.184946305827785949e-03,-5.510928869146705135e-03,-8.838747010066408741e-03,-1.188345330792522393e-02,-1.439789703024569635e-02,-1.619321883145565313e-02,-1.715173089474073681e-02,-1.723272277102045821e-02,-1.647069516539580517e-02,-1.496563565754047836e-02,-1.286691748819554504e-02,-1.035408957524270278e-02,-7.617996515211018088e-03,-4.844884922270946935e-03,-2.204702904475743224e-03,1.570435991396045407e-04,2.125842975814236022e-03,3.625040893030137198e-03,4.622956551514711618e-03,5.137299773098215339e-03,5.232891232459730216e-03,5.011016913341556113e-03,4.592564049708464276e-03,4.099481216943239720e-03,3.638849093066030566e-03,3.291798554086049038e-03,3.107740319296647610e-03,3.103802826970260189e-03,3.268881150546012679e-03,3.570706545494218252e-03,3.964004915675879877e-03,4.398620033354732825e-03,4.826999173117822381e-03,5.209761231718732996e-03,5.518238235915683652e-03,5.735667420121565857e-03,5.860880334962396097e-03,5.915637938947878281e-03,5.951311118050890171e-03,6.048489114391261863e-03,6.306507868060505680e-03,6.825674589159099435e-03,7.688634607823224658e-03,8.946490095014487248e-03,1.061130134591930889e-02,1.265339451152762071e-02,1.500158123617575251e-02,1.754538954044647381e-02,2.013893833308014539e-02,2.260668322563116894e-02,2.475259192323384094e-02,2.637513808113030669e-02,2.728878324822549967e-02,2.734833449094245528e-02,2.646922641159250855e-02,2.463810675261338817e-02,2.191314502289488236e-02,1.841761532011956110e-02,1.433077294158229681e-02,9.877912256285405201e-03,5.319023023926143165e-03,9.342055994355634874e-04,-2.995297275278062995e-03,-6.209651413554836269e-03,-8.494441510946653187e-03,-9.703829043064670506e-03,-9.779836316458328377e-03,-8.762771676723487072e-03,-6.787421420663637683e-03,-4.063860315208935210e-03,-8.479834535825018149e-04,2.590617734486141098e-03,5.997723195122066017e-03,9.157256405105658123e-03,1.190600531659207796e-02,1.413974516515754086e-02,1.581074308015141192e-02,1.691717134978941092e-02,1.748800505982772008e-02,1.757089064668248060e-02,1.722921203679305541e-02,1.654710523610493020e-02,1.563451897192083551e-02,1.462464580684284289e-02,1.366174809292207415e-02,1.288313554603286171e-02,1.240098982792137497e-02,1.228815364446284031e-02,1.256978297203628983e-02,1.322162261455400376e-02,1.417498676383118286e-02,1.532706073015589754e-02,1.655317296922659623e-02,1.771753678969738635e-02,1.868144481705580340e-02,1.931061197360404991e-02,1.948468022557380344e-02,1.911162405007334544e-02,1.814687517030358702e-02,1.661229848745647900e-02,1.460754184186041811e-02,1.230753270913410337e-02,9.943340825105593389e-03,7.768234861075821486e-03,6.016277339399770004e-03,4.864132874447642078e-03,4.405108337311090111e-03,4.640287685244730634e-03,5.487671597516537506e-03,6.805525190864373554e-03,8.422001559228559434e-03,1.016321897744338308e-02,1.187524038590066257e-02,1.343773315595982870e-02,1.476810652223314521e-02,1.581687529019845315e-02,1.655775441884863725e-02,1.697746265851707986e-02,1.706975569092347017e-02,1.683588178483680017e-02,1.628921737395665897e-02,1.545808730244767337e-02,1.438247297720977348e-02,1.310696433524346886e-02,1.167674801193268296e-02,1.014028936946493285e-02,8.555508067744103592e-03,6.993364615170334989e-03,5.535420389841947016e-03,4.266074085332822313e-03,3.262330661660697503e-03,2.583361323722016371e-03,2.260461887263570408e-03,2.287608498104902813e-03,2.614082597748187530e-03,3.142481370810491174e-03,3.736397852547103469e-03,4.240268400117411587e-03,4.508827095634822084e-03,4.438395605980337451e-03,3.990566577430067381e-03,3.201160118108275533e-03,2.172271392927451351e-03,1.050994541031474803e-03,2.482965806406496655e-06,-8.144967401463250366e-04,-1.264322797475838202e-03,-1.242894867585290532e-03,-6.807526141439881233e-04,4.540244576215552081e-04,2.149127510534828631e-03,4.338160523402750587e-03,6.893933863000948140e-03,9.632915454777643202e-03,1.233433781406171985e-02,1.477030399906841679e-02,1.673890259035412317e-02,1.809261763203271964e-02,1.875688898714090655e-02,1.873646960286849683e-02,1.810990363165856931e-02,1.701418249622421719e-02,1.562168007981199619e-02,1.411165316204173945e-02,1.264112101214548249e-02,1.132268580591273138e-02,1.021522548229275747e-02,9.327450192223677231e-03,8.629408993603650616e-03,8.066610773203487447e-03,7.573705663952346248e-03,7.086479463919971578e-03,6.551140625530853245e-03,5.929472140727963005e-03,5.198791186617448407e-03,4.347258022146173462e-03,3.367147021075028463e-03,2.249833294842322126e-03,9.853319460846599303e-04,-4.334316071610303466e-04,-2.004006013587150952e-03,-3.708213139686226695e-03,-5.506802436375296886e-03,-7.333168654964417922e-03,-9.086136700988720061e-03,-1.062675621301461919e-02,-1.178604695344136026e-02,-1.238621541475109361e-02,-1.227064338245180408e-02,-1.133384779790367301e-02,-9.543409090903388209e-03,-6.949305975167760149e-03,-3.680108042462043941e-03,7.081238840820432059e-05,4.063925374300409593e-03,8.033261687663679346e-03,1.170695788080080083e-02,1.483017702009153255e-02,1.719030243199709193e-02,1.864158440212700454e-02,1.912412515604450594e-02,1.867093680210260911e-02,1.739959847492432779e-02,1.549129525290737774e-02,1.316404517658393766e-02,1.064590934461516480e-02,8.151099037169035402e-03,5.860594925707383364e-03,3.909173489491554222e-03,2.380534145996711370e-03,1.310293859447930927e-03,6.939169784239998485e-04,4.951463812586775343e-04,6.513148301877660310e-04,1.074836914277794769e-03,1.653819134235963873e-03,2.256817405627114734e-03,2.745499390553138644e-03,2.994573185275641990e-03,2.913702009552624969e-03,2.464647362964913265e-03,1.669053247533548332e-03,6.059436236266508170e-04,-5.986873472134188060e-04,-1.786059308739604626e-03,-2.779647798083768884e-03,-3.401779108246226393e-03,-3.494083101446116522e-03,-2.940962162063473842e-03,-1.691373590729544846e-03,2.258920255456895040e-04,2.696289940530249320e-03,5.524959981175732969e-03,8.455263573429041418e-03,1.119999005441840376e-02,1.348063954976706433e-02,1.506725587440754799e-02,1.581139884105475790e-02,1.566617789845749231e-02,1.468896835240759806e-02,1.302619681400739651e-02,1.088512765382017820e-02,8.501398102329062179e-03,6.110524500969873214e-03,3.927447260694975732e-03,2.133071753519811924e-03,8.638868892458338852e-04,2.023762067492072608e-04,1.704941171315727628e-04,7.306383140451009391e-04,1.795574036651901651e-03,3.244430231953527102e-03,4.940650506208442774e-03,6.748649637988907157e-03,8.546116885639144789e-03,1.022953930291664593e-02,1.171380574532839176e-02,1.293044203600679856e-02,1.382882864420912315e-02,1.438074128676568655e-02,1.458473014371784726e-02,1.446609224397924463e-02,1.407063095963931483e-02,1.345418129248916218e-02,1.267195026368823918e-02,1.177046435929761208e-02,1.078238147075402664e-02,9.723628251212987697e-03,8.593048356700281123e-03,7.374823976368587511e-03,6.043236428561147948e-03,4.569105782463200524e-03,2.927283022169361541e-03,1.104073262141152438e-03,-8.968791637965605737e-04,-3.050986925876881129e-03,-5.311196314093710909e-03,-7.608159065923862478e-03,-9.851181118462774833e-03,-1.192802703042174228e-02,-1.370348963562506225e-02,-1.502165344593581545e-02,-1.571843369580140995e-02,-1.564544570462537282e-02,-1.469914626869630279e-02,-1.284681945102875318e-02,-1.014299226889375967e-02,-6.733038472017634397e-03,-2.843818777103546570e-03,1.235908532344377536e-03,5.181449656969827795e-03,8.662305067156471708e-03,1.137561870571301807e-02,1.307989835741964202e-02,1.362316671824579696e-02,1.296155754406505892e-02,1.116913511860103542e-02,8.440490198919245804e-03,5.083504348576485359e-03,1.496810708553920725e-03,-1.872060222567261322e-03,-4.587821509712606063e-03,-6.300329363138082450e-03,-6.810511573088861952e-03,-6.104231726033525728e-03,-4.338282085348890010e-03,-1.785443729088050839e-03,1.235595869955811738e-03,4.419461589597606377e-03,7.510558676978080876e-03,1.031807227167685394e-02,1.271591983044445193e-02,1.463445596862082525e-02,1.604912715884286578e-02,1.696795693959147339e-02,1.741764711356059286e-02,1.743008210132280730e-02,1.703391116643244996e-02,1.625437214419905504e-02,1.511914747948188767e-02,1.366441051689494188e-02,1.193708331179075925e-02,9.994295339341971451e-03,7.903395327506727158e-03,5.743660698020708333e-03,3.607523474584788635e-03,1.598303901515884000e-03,-1.765293012244762740e-04,-1.614624301752441878e-03,-2.627167091076734826e-03,-3.144276947446573989e-03,-3.118050257098168958e-03,-2.526295965103476319e-03,-1.379925253097753204e-03,2.660186314942548100e-04,2.302100105268743008e-03,4.562359165309835471e-03,6.836207102198779348e-03,8.894270864332531890e-03,1.052163773277843377e-02,1.154955538778147661e-02,1.187894328799447320e-02,1.149245344675173947e-02,1.045337572660365831e-02,8.891201069850975316e-03,6.977177508411161466e-03,4.896359932394991378e-03,2.822607714620678152e-03,9.000217278329246612e-04,-7.690540351023807727e-04,-2.130135638700871720e-03,-3.175859624633890245e-03,-3.937470999305157059e-03,-4.471336577282655073e-03,-4.846749650368002531e-03,-5.138894101288533738e-03,-5.424103058518927982e-03,-5.771937711005621988e-03,-6.233333126946432289e-03,-6.829496392797694548e-03,-7.546321811998111910e-03,-8.335164062242954655e-03,-9.117536208034815806e-03,-9.791189265324193661e-03,-1.023705194899269047e-02,-1.032824113193479137e-02,-9.942516184267127799e-03,-8.978128260677396486e-03,-7.371081018855109128e-03,-5.110912063550790072e-03,-2.252176091140035454e-03,1.081121387356060630e-03,4.700318982894499502e-03,8.366601208424988625e-03,1.181406741878344123e-02,1.477937579274252178e-02,1.703448792417389113e-02,1.841664014473598163e-02,1.884896797826149731e-02,1.834798298014444703e-02,1.701808468399649069e-02,1.503553459249405873e-02,1.262521744550239473e-02,1.003431130850366768e-02,7.506746188190055458e-03,5.260650913686136694e-03,3.470098855133693910e-03,2.253489841551786603e-03,1.671155747965934104e-03,1.731947681900205096e-03,2.404947108371029759e-03,3.631710734517643122e-03,5.336479342352455288e-03,7.433728358510031248e-03,9.833375637858191715e-03,1.244486077433473031e-02,1.518170126050370425e-02,1.796684848808143345e-02,2.073750997602815879e-02,2.344840361040833460e-02,2.607427104926521647e-02,2.861308880595769474e-02,3.108943830988463580e-02,3.355532963900059035e-02,3.608614723191888585e-02,3.877105157448109546e-02,4.169815945183122374e-02,4.493624821440970335e-02,4.851673630904936030e-02,5.242031555280753791e-02,5.657188787477744618e-02,6.084574849405995772e-02,6.507932795064494402e-02,6.909057074120235342e-02,7.269537449472605883e-02,7.572585619659243095e-02,7.805126382195785861e-02,7.959944988436347402e-02,8.037313760379057037e-02,8.045577687452359905e-02,8.000494724683288039e-02,7.923422095857508840e-02,7.838669674004089538e-02,7.770504435758028572e-02,7.740331955387079466e-02,7.764462663916878171e-02,7.852612960902585759e-02,8.007081978829247437e-02,8.222576736752890136e-02,8.486800137588870752e-02,8.781886404577567140e-02,9.086510125441557562e-02,9.378194303924024255e-02,9.635279478201477787e-02,9.838334265268762480e-02,9.971259511851356117e-02,1.002251356992569647e-01,9.986572193035420097e-02,9.865208467297115202e-02,9.667912048284882376e-02,9.411013409046253830e-02,9.115628171398090784e-02,8.804941509766731067e-02,8.501410032109159298e-02,8.224310294152768763e-02,7.987887904965994268e-02,7.800218989036127037e-02,7.662820438045739313e-02,7.571049399750567899e-02,7.515304287010603213e-02,7.482846037315185606e-02,7.459794719200818491e-02,7.432791828689137847e-02,7.390071271645022588e-02,7.322073360065084469e-02,7.221921737079969872e-02,7.085898296074182034e-02,6.913766947576581445e-02,6.708779251093968665e-02,6.477375939836894914e-02,6.228640248765763415e-02,5.973425965677325866e-02,5.723063965857927426e-02,5.487768325077267695e-02,5.275115133307164278e-02,5.089012845109473077e-02,4.929390688976344193e-02,4.792571758860992431e-02,4.672112471244314891e-02,4.559803841593489809e-02,4.446572578236088202e-02,4.323187062253693730e-02,4.180826306841970569e-02,4.011547511453886217e-02,3.808556544027087709e-02,3.566251800155605806e-02,3.280306895581835969e-02,2.948144248207260412e-02,2.569820360722676472e-02,2.148962440664333590e-02,1.693336530187704650e-02,1.214831570463902749e-02,7.288219895821432086e-03,2.529264915838849454e-03,-1.947222565204921466e-03,-5.974277013907374444e-03,-9.417986310152002757e-03,-1.219305123373833934e-02,-1.427302179744636100e-02,-1.569290181641389698e-02,-1.654274789869212073e-02,-1.695321901499606196e-02,-1.707683146923394749e-02,-1.707036837381985597e-02,-1.708268955562637290e-02,-1.724764801829225744e-02,-1.767753282084034983e-02,-1.845310113582796646e-02,-1.961100007906977152e-02,-2.113344717990849053e-02,-2.294578338059914679e-02,-2.492469654101420184e-02,-2.691495431916831466e-02,-2.874924781165525203e-02,-3.026685283023226175e-02,-3.132961639025358402e-02,-3.183458339690579952e-02,-3.172255047691054791e-02,-3.098343956474731292e-02,-2.966035053781819822e-02,-2.785158864994670760e-02,-2.570703252699173269e-02,-2.341653641538484279e-02,-2.119224679843149245e-02,-1.924919708138686861e-02,-1.778762923302316945e-02,-1.697776977795536352e-02,-1.694614469008564814e-02,-1.776319050387209150e-02,-1.943307941211570855e-02,-2.188709651669768982e-02,-2.498249123552132023e-02,-2.850920783062942804e-02,-3.220592211589882320e-02,-3.578452130700004313e-02,-3.895981667273074739e-02,-4.147976546620085747e-02,-4.315128391660070367e-02,-4.385810609717922387e-02,-4.356945141864869420e-02,-4.234028137703117756e-02,-4.030521150534135955e-02,-3.766853501720764108e-02,-3.469146461161540934e-02,-3.167480790892039655e-02,-2.893384376060235963e-02,-2.676558352702982160e-02,-2.541527733529432356e-02,-2.505184769969494643e-02,-2.575720750402812897e-02,-2.752735703429533276e-02,-3.028017008242553723e-02,-3.386597826708954984e-02,-3.807939959199691665e-02,-4.267282067928363648e-02,-4.737313816485090590e-02,-5.190311110339313611e-02,-5.600652077918168159e-02,-5.947334499721874251e-02,-6.215945515943131078e-02,-6.399599795677358982e-02,-6.498630927452478390e-02,-6.519224565947981387e-02,-6.471558492829128373e-02,-6.368106839829822119e-02,-6.222490361147652721e-02,-6.048837822039578732e-02,-5.861341240177028733e-02,-5.673646891570433698e-02,-5.497920331427884333e-02,-5.343771358289773482e-02,-5.217481316047745121e-02,-5.121804060452112700e-02,-5.056014314732264203e-02,-5.015486958941138551e-02,-4.990434958265516779e-02,-4.964119725841456554e-02,-4.911198577100261281e-02,-4.796847367898973008e-02,-4.577159260560358101e-02,-4.201100882023370287e-02,-3.614042623054280340e-02,-2.762708488294342291e-02,-1.601174432767683148e-02,-9.710390749843461362e-04,1.762936759530918038e-02,3.970017867025408403e-02,6.491478483945860301e-02,9.271316067301538233e-02,1.223191017230207955e-01,1.527684769394351549e-01,1.829476317315776035e-01,2.116419364500562172e-01,2.375960338949875683e-01,2.595882509746091360e-01,2.765184700298991549e-01,2.875017614054720116e-01,0.000000000000000000e+00,0.000000000000000000e+00,0.000000000000000000e+00,0.000000000000000000e+00,0.000000000000000000e+00,0.000000000000000000e+00,0.000000000000000000e+00,0.000000000000000000e+00,0.000000000000000000e+00,0.000000000000000000e+00,0.000000000000000000e+00,0.000000000000000000e+00,0.000000000000000000e+00,0.000000000000000000e+00,0.000000000000000000e+00,0.000000000000000000e+00,0.000000000000000000e+00,0.000000000000000000e+00,0.000000000000000000e+00,0.000000000000000000e+00,0.000000000000000000e+00,0.000000000000000000e+00,0.000000000000000000e+00,0.000000000000000000e+00,0.000000000000000000e+00,0.000000000000000000e+00,0.000000000000000000e+00,0.000000000000000000e+00,0.000000000000000000e+00,0.000000000000000000e+00,0.000000000000000000e+00,0.000000000000000000e+00,0.000000000000000000e+00,0.000000000000000000e+00,0.000000000000000000e+00,0.000000000000000000e+00,0.000000000000000000e+00,0.000000000000000000e+00,0.000000000000000000e+00,0.000000000000000000e+00,0.000000000000000000e+00,0.000000000000000000e+00,0.000000000000000000e+00
2.919546505687454219e-01,2.896611606255030114e-01,2.808100243021907083e-01,2.659982838714757269e-01,2.461980545270116283e-01,2.226847244346217281e-01,1.969295223314426191e-01,1.704668280613967357e-01,1.447532371486641711e-01,1.210391128705106123e-01,1.002729834761291045e-01,8.305196970671417656e-02,6.961895292471233232e-02,5.989776455594771759e-02,5.355587202060579227e-02,5.008489305517038054e-02,4.888806830061109138e-02,4.936280177867472668e-02,5.096848724789125595e-02,5.327325345073904289e-02,5.597508172116717751e-02,5.889421906143173235e-02,6.193882142515726164e-02,6.505409293946309846e-02,6.817079882847404404e-02,7.116760455805913599e-02,7.385588743679047385e-02,7.599014906437036310e-02,7.730205937719916709e-02,7.754956111070303304e-02,7.656717161246436032e-02,7.430431876132272129e-02,7.084361292075536110e-02,6.639558950947629934e-02,6.127060648743588162e-02,5.583391522158038384e-02,5.045402953565077120e-02,4.545438952834495588e-02,4.107518258978178766e-02,3.744925977890291996e-02,3.459429537073805544e-02,3.242141936791845258e-02,3.075822709866995672e-02,2.938219504640326649e-02,2.805894576049970321e-02,2.657846642660371267e-02,2.478277340999258255e-02,2.258146021281026358e-02,1.995556188266771336e-02,1.695282005785942944e-02,1.367785225466976347e-02,1.027960718167948879e-02,6.936663216770408945e-03,3.839613125952584700e-03,1.170336897308377460e-03,-9.198704376140520245e-04,-2.329310977637169371e-03,-3.017900155730479303e-03,-3.010441569010511437e-03,-2.392521804776870029e-03,-1.301682831816781873e-03,8.443324655397040556e-05,1.563342676362808326e-03,2.927582161441500113e-03,3.987760733690089501e-03,4.593615536625158050e-03,4.647674611890278973e-03,4.109919804435342196e-03,2.996191981192895207e-03,1.374651989922358450e-03,-6.378687301260394741e-04,-2.882030987700475062e-03,-5.168793070086961060e-03,-7.300224693653718788e-03,-9.094518718691249962e-03,-1.040813318914738522e-02,-1.114935394074256618e-02,-1.128223129792414563e-02,-1.082422345733238117e-02,-9.841791508360224483e-03,-8.445271670235558747e-03,-6.781065597664900392e-03,-5.018871116517944868e-03,-3.333890033327931938e-03,-1.886673134796827515e-03,-8.049167272645785590e-04,-1.708791209141283479e-04,-1.553883391671360238e-05,-3.181979972753211242e-04,-1.009493878721933521e-03,-1.976967506017825345e-03,-3.074254182456964690e-03,-4.135486855971111549e-03,-4.994729761891683259e-03,-5.507630704242958558e-03,-5.571260261063528188e-03,-5.138489241758435744e-03,-4.223967158607152932e-03,-2.900592966525972118e-03,-1.288648403248953420e-03,4.586504179126145160e-04,2.170667873409589700e-03,3.674944198538099890e-03,4.812921916151074661e-03,5.456627479193771821e-03,5.525498766304619801e-03,4.998116041268498531e-03,3.912080707493890801e-03,2.351323455213381527e-03,4.280152074828260191e-04,-1.732847043789663768e-03,-4.003565471036973911e-03,-6.260561521252983909e-03,-8.389961842381341364e-03,-1.029173750472978793e-02,-1.188127301264620128e-02,-1.308883016619591735e-02,-1.385951704891955419e-02,-1.415675136313228506e-02,-1.397008991488309960e-02,-1.332481723448133461e-02,-1.228840339540112139e-02,-1.096991264870071821e-02,-9.511709283356942213e-03,-8.075456403336841310e-03,-6.825178977394851139e-03,-5.909815276458308189e-03,-5.447067865975439675e-03,-5.510048895334596422e-03,-6.118301709077219284e-03,-7.234464050218600457e-03,-8.766738352734998810e-03,-1.057657678136701696e-02,-1.249108393132101168e-02,-1.431945592177787802e-02,-1.587199625652268437e-02,-1.698000167105273919e-02,-1.751530416702853574e-02,-1.740810651341979237e-02,-1.666013934112792888e-02,-1.534857803074667418e-02,-1.361713530252139925e-02,-1.165495538010735341e-02,-9.668832662573121836e-03,-7.856265498687802287e-03,-6.384854755794740731e-03,-5.379511717782964157e-03,-4.915475238174078429e-03,-5.014292688723823686e-03,-5.641832215234076492e-03,-6.709254667595383921e-03,-8.077758535922786171e-03,-9.567670636969345666e-03,-1.097311023577835810e-02,-1.208263284390970888e-02,-1.270319695169832772e-02,-1.268254065350396705e-02,-1.192576111400440661e-02,-1.040438999126952133e-02,-8.158642293589472849e-03,-5.294454166101004999e-03,-1.976076246448539749e-03,1.585790802336476671e-03,5.149435143874720247e-03,8.459379958605448002e-03,1.126439626518889632e-02,1.333588259121093987e-02,1.448546663210018015e-02,1.458006861029941502e-02,1.355354851831623748e-02,1.141558770206436285e-02,8.258517694223340214e-03,4.260613411295887006e-03,-3.177831428693869242e-04,-5.148235576744418854e-03,-9.858291805267255584e-03,-1.406374826054605960e-02,-1.740721434177054314e-02,-1.960030914242776381e-02,-2.046371263707060656e-02,-1.995694629992621899e-02,-1.819064172688640915e-02,-1.541671742181586861e-02,-1.199570024429541873e-02,-8.346485123859966396e-03,-4.889802413993745052e-03,-1.997542513756541804e-03,4.541819901551087636e-05,1.067311378343673489e-03,1.025933867644110561e-03,1.338590734471042812e-05,-1.757879398296477132e-03,-3.991902668639623133e-03,-6.362612429911180568e-03,-8.568260006471090443e-03,-1.037145943017298878e-02,-1.161756304413678886e-02,-1.223428031702684070e-02,-1.222143770356003134e-02,-1.163865731922895594e-02,-1.059418761638208223e-02,-9.235173010657585224e-03,-7.737804558913275073e-03,-6.294016915945331234e-03,-5.092645228804603547e-03,-4.297551704640668012e-03,-4.028044729542071441e-03,-4.345034378109065114e-03,-5.243185828213475265e-03,-6.648776186483297893e-03,-8.423972802361807261e-03,-1.037805032727832401e-02,-1.228537715177012261e-02,-1.391022498427409507e-02,-1.503767057254141309e-02,-1.550676514090793337e-02,-1.523937080427859546e-02,-1.425785377169215551e-02,-1.268636987573380434e-02,-1.073354386533445504e-02,-8.659716392552214287e-03,-6.737162485019595332e-03,-5.212750867164374531e-03,-4.279675558115367436e-03,-4.061579351672689291e-03,-4.610059524610114583e-03,-5.914168332771626256e-03,-7.917190388328700090e-03,-1.053319180876538877e-02,-1.365708022185047055e-02,-1.716747352088934808e-02,-2.092644338603555365e-02,-2.478069634741837321e-02,-2.856714264986045387e-02,-3.212400621647121951e-02,-3.530574817754394967e-02,-3.799727367635165332e-02,-4.012343878820419374e-02,-4.165323378635575613e-02,-4.260005432323859392e-02,-4.301886952892329530e-02,-4.300016996749789211e-02,-4.266078476797556529e-02,-4.213273516627107779e-02,-4.155245728146449158e-02,-4.105254202856682688e-02,-4.075578150691144125e-02,-4.076848383139893700e-02,-4.117013666310710696e-02,-4.200066672238931403e-02,-4.325081102277788386e-02,-4.486063773358389684e-02,-4.672649520991359329e-02,-4.871249824662171601e-02,-5.066251500576075817e-02,-5.241149369548065567e-02,-5.379726196657005910e-02,-5.467348050090783951e-02,-5.492247707546451391e-02,-5.446551507020289812e-02,-5.326843993573755764e-02,-5.134223569902528206e-02,-4.873967018518090416e-02,-4.554967948556811613e-02,-4.189083308337943068e-02,-3.790489841596565018e-02,-3.375067373601427917e-02,-2.959705513551339970e-02,-2.561410559073872342e-02,-2.196197008101664905e-02,-1.877881612475067880e-02,-1.616971158876479020e-02,-1.419845959070056146e-02,-1.288416982944703970e-02,-1.220337982652242720e-02,-1.209684030121025572e-02,-1.247901316935331323e-02,-1.324861723574794620e-02,-1.429888486195201279e-02,-1.552555663175049505e-02,-1.683078828996573129e-02,-1.812394559519980852e-02,-1.932316996527900371e-02,-2.036047031214459346e-02,-2.118903949077612786e-02,-2.178925578736569391e-02,-2.217065605369580167e-02,-2.236901546844325545e-02,-2.243978712847031001e-02,-2.245070844635685403e-02,-2.247522369746824886e-02,-2.258541128476353188e-02,-2.284234154100205083e-02,-2.328454226459206883e-02,-2.391854837894846417e-02,-2.471593551219939885e-02,-2.561845811658295877e-02,-2.654963092258977309e-02,-2.742953408396438253e-02,-2.818926025269576086e-02,-2.878141156757708929e-02,-2.918440976405633699e-02,-2.940120711065434891e-02,-2.945478498632355183e-02,-2.938213348847076509e-02,-2.922675905975684676e-02,-2.902916258041831482e-02,-2.881582193147779261e-02,-2.858936069274904679e-02,-2.832398290385981787e-02,-2.796913747802433695e-02,-2.746111843186816934e-02,-2.673917789213676316e-02,-2.576126474318803442e-02,-2.451482812193860050e-02,-2.302010877914030876e-02,-2.132624305226025335e-02,-1.950283019574395107e-02,-1.763051559163852228e-02,-1.579353505230021368e-02,-1.407524947552819816e-02,-1.255558136934325532e-02,-1.130832898706208949e-02,-1.039700908009675434e-02,-9.869601531141001388e-03,-9.753732841902765585e-03,-1.005328006313602369e-02,-1.074642732891647329e-02,-1.178556575878878833e-02,-1.310014992796339726e-02,-1.460282709370268675e-02,-1.619728877977159864e-02,-1.778551723392927941e-02,-1.927312895815242594e-02,-2.057301762020042127e-02,-2.160838108488061585e-02,-2.231647178620774913e-02,-2.265392242683808566e-02,-2.260330542834058237e-02,-2.217955235497584207e-02,-2.143464497972546665e-02,-2.045918053881883025e-02,-1.937904366650596011e-02,-1.834467016135772968e-02,-1.751143137150738133e-02,-1.701351229340922547e-02,-1.693754948813154179e-02,-1.730309620236209628e-02,-1.805487456677452168e-02,-1.906880148387160231e-02,-2.017100366968550829e-02,-2.116643025599888872e-02,-2.187130595580425232e-02,-2.214231148442911273e-02,-2.189650590065504721e-02,-2.111986467258788330e-02,-1.986595993151907616e-02,-1.824696275216981106e-02,-1.641794752460533705e-02,-1.455541639612741196e-02,-1.283301671477319120e-02,-1.139940149152820700e-02,-1.036261691444877349e-02,-9.783132854314795929e-03,-9.675786693249867690e-03,-1.001934703673617102e-02,-1.077033476693248573e-02,-1.187624455897143966e-02,-1.328391193161988434e-02,-1.494120652983617001e-02,-1.679299079174488563e-02,-1.877442261558810027e-02,-2.080588874818338138e-02,-2.279334114962279847e-02,-2.463501707765194948e-02,-2.623190863823825908e-02,-2.749771954558298884e-02,-2.836558351341339837e-02,-2.879151639484114206e-02,-2.875576934490983033e-02,-2.826322684413815414e-02,-2.734470201774640008e-02,-2.606136410934747558e-02,-2.451170829912106483e-02,-2.283578865784860121e-02,-2.120958603024383424e-02,-1.982541533602901612e-02,-1.886045417106749222e-02,-1.844144455575819422e-02,-1.861613290460217493e-02,-1.933989489121399133e-02,-2.048100748244383040e-02,-2.184306942354612147e-02,-2.319941671879511072e-02,-2.433187760268156266e-02,-2.506529866583739538e-02,-2.529078349208802381e-02,-2.497451375387163205e-02,-2.415383628312164563e-02,-2.292504622666489966e-02,-2.142640415114067942e-02,-1.981774001176661582e-02,-1.825809608298496409e-02,-1.688514755804679940e-02,-1.580096689184026792e-02,-1.506622808730742613e-02,-1.470147241859395999e-02,-1.469228686806410729e-02,-1.499560952796882146e-02,-1.554585492061174960e-02,-1.626090296156575479e-02,-1.704886372997971647e-02,-1.781709765971895704e-02,-1.848446153187391014e-02,-1.899520229116603495e-02,-1.932952249729218488e-02,-1.950529973549081433e-02,-1.956976466616708668e-02,-1.958552354337590035e-02,-1.961710662792889165e-02,-1.972164617480832299e-02,-1.994321726492445657e-02,-2.030796541751661230e-02,-2.081824726506621356e-02,-2.144741110930738215e-02,-2.213884550899539172e-02,-2.281157706583889985e-02,-2.337166428721730582e-02,-2.372651969511124781e-02,-2.379887729422137596e-02,-2.353736731280286348e-02,-2.292137138767860391e-02,-2.196027178926509074e-02,-2.069036728360890837e-02,-1.917298996399415673e-02,-1.749393059076341170e-02,-1.576082634822806999e-02,-1.409490658727820429e-02,-1.261612573632959686e-02,-1.142448024030852730e-02,-1.058346484297250853e-02,-1.011144830114827677e-02,-9.982183909276735878e-03,-1.013114535628707562e-02,-1.046453791037742220e-02,-1.087042715898058239e-02,-1.123183731065332050e-02,-1.144030769470396822e-02,-1.140840675794243739e-02,-1.108080091580960873e-02,-1.044257373527356265e-02,-9.521140402499801703e-03,-8.378822057441871751e-03,-7.097669398102706209e-03,-5.761867085887890060e-03,-4.443217203150764613e-03,-3.193158566011836987e-03,-2.042118942986738926e-03,-1.004343553712616762e-03,-8.498109018985556184e-05,7.127938763097867560e-04,1.381027342320297925e-03,1.901308961543110533e-03,2.242996561062629221e-03,2.367880342683794694e-03,2.239399659272763975e-03,1.830545235296820051e-03,1.125711416321859525e-03,1.164341395778832313e-04,-1.205189506861223739e-03,-2.850493598178128075e-03,-4.832700347513531509e-03,-7.160997025445820473e-03,-9.833756418240297351e-03,-1.283242293158440642e-02,-1.611489714537545428e-02,-1.960860186468399435e-02,-2.320692968886514662e-02,-2.677292662036305157e-02,-3.014999928567237489e-02,-3.317569205154220768e-02,-3.569438438860527557e-02,-3.756699414198275133e-02,-3.867791037095286849e-02,-3.894022431925646399e-02,-3.830051136940569589e-02,-3.674448023879627739e-02,-3.430411405999365948e-02,-3.106559201965283096e-02,-2.717576161196241444e-02,-2.284308315967908606e-02,-1.832829891906423078e-02,-1.392223519421009748e-02,-9.911993356662372398e-03,-6.541192214465705104e-03,-3.974112680840632267e-03,-2.274609197416604250e-03,-1.406382564761508684e-03,-1.253352556348589705e-03,-1.651852673348270899e-03,-2.424652000993254321e-03,-3.409887304749059222e-03,-4.481234795959028461e-03,-5.558027935564261585e-03,-6.607200329132612363e-03,-7.640623020387479064e-03,-8.708849824006747661e-03,-9.889058492029718234e-03,-1.126621629666178098e-02,-1.291048694388357773e-02,-1.485577385827659483e-02,-1.708397503909316745e-02,-1.951900733240339442e-02,-2.203301733002240720e-02,-2.446356761917303085e-02,-2.663701645418616384e-02,-2.839215831452656519e-02,-2.959990807952017286e-02,-3.017786524196386030e-02,-3.010039455924740787e-02,-2.940415284189416140e-02,-2.818723406933149392e-02,-2.659976298139657414e-02,-2.482595163315085007e-02,-2.306112924518453552e-02,-2.148925776938409582e-02,-2.026490736908374835e-02,-1.949981738741712878e-02,-1.925206996610127896e-02,-1.951778471593693109e-02,-2.022831454476983065e-02,-2.125635399100048867e-02,-2.243203041441549708e-02,-2.356674194219636823e-02,-2.447950371256781346e-02,-2.501970401811888858e-02,-2.508292071214563920e-02,-2.462045599377098160e-02,-2.364414999443184562e-02,-2.222590185087936973e-02,-2.049035827515594335e-02,-1.860069355559464815e-02,-1.673901416863363828e-02,-1.508395449462666266e-02,-1.378921223201736920e-02,-1.296727327799266499e-02,-1.268102454893750390e-02,-1.294293227139087926e-02,-1.371925050357865154e-02,-1.493671639883106111e-02,-1.649059082922171154e-02,-1.825421007156025066e-02,-2.009050611842668269e-02,-2.186482065030981650e-02,-2.345642119220500699e-02,-2.476552313063892438e-02,-2.571493653144524272e-02,-2.624934503937362273e-02,-2.633702664127894957e-02,-2.597625813327920918e-02,-2.520364462484548165e-02,-2.409864677630824126e-02,-2.278006438622066573e-02,-2.139459702408195302e-02,-2.010124990454736568e-02,-1.905579500024668152e-02,-1.839705150054698340e-02,-1.823405524790038673e-02,-1.863323450219960681e-02,-1.960779533487714069e-02,-2.111393056976274690e-02,-2.305663706262673501e-02,-2.530313605494990611e-02,-2.769843389770788172e-02,-3.007786218107393397e-02,-3.227471126375887345e-02,-3.412535440080893823e-02,-3.547733849934871925e-02,-3.620477121643724677e-02,-3.622921705400244247e-02,-3.553827471374455121e-02,-3.419379501248620556e-02,-3.232671195811658710e-02,-3.012094465028308798e-02,-2.779142865532310824e-02,-2.556064250982581498e-02,-2.363602562663321208e-02,-2.218971252907761191e-02,-2.134220434054915835e-02,-2.115157457872432825e-02,-2.160878207229796621e-02,-2.263866157836964474e-02,-2.410633584541171937e-02,-2.582929369241708517e-02,-2.759495738685707050e-02,-2.918230990954399570e-02,-3.038481392339533252e-02,-3.103160667725374591e-02,-3.100508994672311266e-02,-3.025371630119817398e-02,-2.879814648026680912e-02,-2.672907280281016165e-02,-2.419707103913986204e-02,-2.139671882935544750e-02,-1.854699274495588343e-02,-1.586892246582588886e-02,-1.356145879127532150e-02,-1.177772416342950240e-02,-1.060581573021291378e-02,-1.005937449188882768e-02,-1.008086451672917522e-02,-1.055601760208959433e-02,-1.133522350047106754e-02,-1.225793482192325673e-02,-1.317669305335873731e-02,-1.397674494383059456e-02,-1.458735230757713004e-02,-1.498345235790207210e-02,-1.517978117369114290e-02,-1.522119063366009564e-02,-1.517216338548500396e-02,-1.510736390843667697e-02,-1.510465684238777168e-02,-1.524129949129501838e-02,-1.559194258895910817e-02,-1.622490908852681005e-02,-1.719353194089819417e-02,-1.852315984805182753e-02,-2.019937011732570592e-02,-2.216429652518068366e-02,-2.432357864880031750e-02,-2.656007667978549716e-02,-2.874782485140418148e-02,-3.076152685193077677e-02,-3.248042677305522374e-02,-3.378889466572621014e-02,-3.457856537408988268e-02,-3.475635351164031717e-02,-3.425860323068695423e-02,-3.306724562918592764e-02,-3.122236570940155331e-02,-2.882692158173712910e-02,-2.604202224563107251e-02,-2.307348364119859302e-02,-2.015094527457408219e-02,-1.750082334373554566e-02,-1.531618420559207466e-02,-1.372976954324223349e-02,-1.279802492562533665e-02,-1.250176601625651966e-02,-1.276297271406150353e-02,-1.347045386335976244e-02,-1.450448875780510280e-02,-1.575304622721557246e-02,-1.711679140081433237e-02,-1.850450189936726081e-02,-1.982427256943388588e-02,-2.097757885627670946e-02,-2.186126266353611777e-02,-2.237814290825251157e-02,-2.245324485006228860e-02,-2.205073917506621475e-02,-2.118619605643034740e-02,-1.992965601396734857e-02,-1.839722315484143556e-02,-1.673207062106701545e-02,-1.507985644287801290e-02,-1.356678166164559593e-02,-1.228710587769506375e-02,-1.130075450089292576e-02,-1.063658828835384144e-02,-1.029762746087250179e-02,-1.026793830267665707e-02,-1.052092353628823924e-02,-1.102561547828277526e-02,-1.174703739695518237e-02,-1.264113339254990462e-02,-1.364971931588742325e-02,-1.470125508991748306e-02,-1.571935771581740166e-02,-1.663654474460343063e-02,-1.740778000898255545e-02,-1.801842827180653167e-02,-1.848540167265371945e-02,-1.885479065448730090e-02,-1.919824857697620402e-02,-1.960590264441095659e-02,-2.017281846627966280e-02,-2.097973843649432110e-02,-2.207198510003938532e-02,-2.344130749247975293e-02,-2.501558265361123259e-02,-2.666053724020648816e-02,-2.819463314890599190e-02,-2.941398569111155353e-02,-3.012162727639804485e-02,-3.015584755668456601e-02,-2.941444987669860830e-02,-2.787336733568866395e-02,-2.559773865204309148e-02,-2.274219980595009946e-02,-1.953734361054069307e-02,-1.626235182280085650e-02,-1.320845683712538847e-02,-1.064114904474726918e-02,-8.768638507739174096e-03,-7.720553141905358782e-03,-7.537202281377732536e-03,-8.168615627260773435e-03,-9.483476911147719138e-03,-1.128848335473271215e-02,-1.335712149337249521e-02,-1.546332574913191794e-02,-1.741186915324157217e-02,-1.905766464368945090e-02,-2.031176294000069590e-02,-2.113797919829148164e-02,-2.154556409727212407e-02,-2.158075812873359520e-02,-2.131742762594454263e-02,-2.084635444321353975e-02,-2.026387195761955584e-02,-1.966217980754044262e-02,-1.912376336908412980e-02,-1.871993220041898859e-02,-1.851068841903982451e-02,-1.854262369555865694e-02,-1.884353081759817736e-02,-1.941511950823516380e-02,-2.022685621997542121e-02,-2.121427489599320843e-02,-2.228426762472566353e-02,-2.332705111477165194e-02,-2.423099765870010552e-02,-2.489604228169889355e-02,-2.524432831345897743e-02,-2.522853130754400264e-02,-2.483634358593571345e-02,-2.408817114310477653e-02,-2.302819017747671435e-02,-2.171329107649819234e-02,-2.020529366872166402e-02,-1.856901665045887842e-02,-1.687500720845125368e-02,-1.520373177887558540e-02,-1.364794695073637265e-02,-1.230962762944602662e-02,-1.128871521321147056e-02,-1.066601915874344254e-02,-1.048758072227693600e-02,-1.075655801950861808e-02,-1.143362711835415116e-02,-1.244400727828685015e-02,-1.368907065366987974e-02,-1.506042484075173667e-02,-1.645362522313398301e-02,-1.777820929329004124e-02,-1.896177994181452026e-02,-1.994875064968530329e-02,-2.069697920417356771e-02,-2.117538413643482026e-02,-2.136336130275277162e-02,-2.125095509384746298e-02,-2.083879699039202851e-02,-2.013833118062064581e-02,-1.917383661649386256e-02,-1.798653909134144413e-02,-1.663865450107309199e-02,-1.521402283843327832e-02,-1.381242379116997404e-02,-1.253590008752335228e-02,-1.146851713278944709e-02,-1.065561453594024606e-02,-1.009040690652992546e-02,-9.712200968183941699e-03,-9.414873153134224737e-03,-9.061368534766821303e-03,-8.500850199321811559e-03,-7.587298618648585617e-03,-6.199113127831321068e-03,-4.257784012302985588e-03,-1.741534582279064686e-03,1.310195543415382897e-03,4.802468897574905735e-03,8.598137687238454133e-03,1.253473461810322535e-02,1.644214175297362829e-02,2.015979982319021993e-02,2.355240372890041525e-02,2.652217887707892033e-02,2.901607627851988946e-02,3.102787911458846151e-02,3.259606773505574484e-02,3.379773930729636916e-02,3.473904602393201174e-02,3.554377077969030768e-02,3.634131242798158828e-02,3.725389621178219757e-02,3.838352774670278356e-02,3.980147783141671503e-02,4.154332934701272101e-02,4.361034259324973739e-02,4.597521267857836852e-02,4.858888813610173774e-02,5.138561824151866020e-02,5.428525602434811081e-02,5.719433417538788422e-02,6.000970312877954710e-02,6.262845330567462510e-02,6.496404552571495572e-02,6.696322987762230727e-02,6.861603024127957418e-02,6.995437758398857786e-02,7.104143303058993442e-02,7.195802833776790419e-02,7.279153002387347970e-02,7.362732295303101027e-02,7.454003395378008823e-02,7.558386842529958571e-02,7.678474385276119751e-02,7.813664089133635915e-02,7.960213424984027841e-02,8.111547579949508757e-02,8.258640487097160254e-02,8.390355353652986792e-02,8.493808267798735878e-02,8.555086779475853942e-02,8.560751059023508081e-02,8.500154568965768986e-02,8.367924143380571500e-02,8.165575013739759247e-02,7.901602991531374298e-02,7.590192363165419731e-02,7.249222687445719404e-02,6.898224245107022201e-02,6.556578637902739370e-02,6.241966171945241559e-02,5.968986020154497252e-02,5.747982833716189233e-02,5.584202640198553808e-02,5.477334596331668443e-02,5.421463790619616974e-02,5.405622004096052868e-02,5.415200492369046104e-02,5.434211803534211294e-02,5.447961667588013812e-02,5.445436653279658867e-02,5.420718871760332735e-02,5.373048084829298160e-02,5.305714695319636853e-02,5.224405534458043121e-02,5.135571437089360425e-02,5.045003212965556288e-02,4.956570416484164243e-02,4.871162314803659937e-02,4.786028888258047481e-02,4.694748520414350479e-02,4.587956664045304833e-02,4.454785640537369668e-02,4.284755509699729459e-02,4.069746985060273409e-02,3.805689577455981937e-02,3.493642155430840002e-02,3.140030704246497134e-02,2.755930284006283953e-02,2.355399263044464717e-02,1.953070321264655657e-02,1.561530550330745074e-02,1.189285908125947699e-02,8.400148851279222104e-03,5.133054252468590047e-03,2.064296519172016762e-03,-8.359975540425744044e-04,-3.583248104762327534e-03,-6.168626099044415001e-03,-8.558123574538022138e-03,-1.070033978008384096e-02,-1.254110374448604362e-02,-1.404075200140835096e-02,-1.518803909715165691e-02,-1.600601998659056946e-02,-1.654954377081501588e-02,-1.689742549093805127e-02,-1.714276340617950506e-02,-1.738372260983126263e-02,-1.771602138124848957e-02,-1.822725057957552339e-02,-1.899201136871546750e-02,-2.006608652218656516e-02,-2.147832396946457167e-02,-2.322158721142095900e-02,-2.524693178293836368e-02,-2.746429367749264605e-02,-2.974916977051894965e-02,-3.195251751889979092e-02,-3.391219857978834684e-02,-3.546647448328716506e-02,-3.647046872329440248e-02,-3.681466495342362866e-02,-3.644246266843294280e-02,-3.536335600728181261e-02,-3.365903570471223683e-02,-3.148051616910972628e-02,-2.903531982190390992e-02,-2.656560854050447201e-02,-2.432076276293736183e-02,-2.252988683455207225e-02,-2.137972351979782262e-02,-2.100054779041135924e-02,-2.145773909360877002e-02,-2.274468423065343844e-02,-2.477699505865214868e-02,-2.739447841617905985e-02,-3.037780669484249976e-02,-3.347920422448667083e-02,-3.645752178941759347e-02,-3.910668122366790095e-02,-4.127307850778844101e-02,-4.286406044863143305e-02,-4.385069433895628227e-02,-4.426606318442174309e-02,-4.419872900470544347e-02,-4.378087479979628216e-02,-4.317212227806118546e-02,-4.254170525978116790e-02,-4.205143355830260471e-02,-4.184055207359142770e-02,-4.201368177615873861e-02,-4.263358159681340104e-02,-4.371887211917568905e-02,-4.524476349034747130e-02,-4.714530271791308319e-02,-4.931750622283620489e-02,-5.162856046394150022e-02,-5.392676912187031185e-02,-5.605540367748639008e-02,-5.786709766718720754e-02,-5.923637624084583664e-02,-6.006916444107851527e-02,-6.030950466036502644e-02,-5.994405885443686299e-02,-5.900396611248605316e-02,-5.756326408407490963e-02,-5.573451787231035320e-02,-5.366316596233482866e-02,-5.152072329352064273e-02,-4.949515753831634779e-02,-4.777656601682157833e-02,-4.653767711361992548e-02,-4.591085436419711091e-02,-4.596606811970144202e-02,-4.669656278973499663e-02,-4.801743662092426007e-02,-4.977592931592288161e-02,-5.176561996151655964e-02,-5.373612990730723682e-02,-5.539511797918196534e-02,-5.640471888105649811e-02,-5.637729963311959025e-02,-5.487692608823534907e-02,-5.143309292847314529e-02,-4.557034660789310160e-02,-3.685230678391245018e-02,-2.493377763209513737e-02,-9.611609528506986563e-03,9.135488221757786381e-03,3.112526352174008193e-02,5.596998562221228851e-02,8.309018863056799598e-02,1.117374609486481152e-01,1.410209713062000325e-01,1.699358256971468806e-01,1.973955340500799793e-01,2.222744476420742687e-01,2.434659419725871687e-01,2.599568918594750699e-01,2.709117082937028131e-01,0.000000000000000000e+00,0.000000000000000000e+00,0.000000000000000000e+00,0.000000000000000000e+00,0.000000000000000000e+00,0.000000000000000000e+00,0.000000000000000000e+00,0.000000000000000000e+00,0.000000000000000000e+00,0.000000000000000000e+00,0.000000000000000000e+00,0.000000000000000000e+00,0.000000000000000000e+00,0.000000000000000000e+00,0.000000000000000000e+00,0.000000000000000000e+00,0.000000000000000000e+00,0.000000000000000000e+00,0.000000000000000000e+00,0.000000000000000000e+00,0.000000000000000000e+00,0.000000000000000000e+00,0.000000000000000000e+00,0.000000000000000000e+00,0.000000000000000000e+00,0.000000000000000000e+00,0.000000000000000000e+00,0.000000000000000000e+00,0.000000000000000000e+00,0.000000000000000000e+00,0.000000000000000000e+00,0.000000000000000000e+00,0.000000000000000000e+00,0.000000000000000000e+00,0.000000000000000000e+00,0.000000000000000000e+00,0.000000000000000000e+00
2.757544357126355816e-01,2.742365884248859631e-01,2.664800079692375978e-01,2.529864801135485175e-01,2.346089282624138350e-01,2.124836337272966724e-01,1.879292592586878086e-01,1.623244462968967683e-01,1.369800931992207760e-01,1.130252047883991140e-01,9.132450277485321122e-02,7.243934575133741116e-02,5.663291528489610566e-02,4.391134843319267900e-02,3.408774069992556721e-02,2.685540206989678325e-02,2.185894995736362839e-02,1.875505503875536314e-02,1.725653553233630344e-02,1.715353499574772886e-02,1.830754104336701493e-02,2.062106213387333159e-02,2.399443827608795099e-02,2.828522435360155546e-02,3.328257226955323722e-02,3.870222259509530777e-02,4.420166541678489935e-02,4.941119797560654392e-02,5.397386124833490617e-02,5.758527579830651638e-02,6.002458415446706996e-02,6.117122659550652125e-02,6.100777205053660446e-02,5.961256175692384446e-02,5.714504873956885445e-02,5.382408086361172017e-02,4.989972768840680861e-02,4.562304034272440106e-02,4.122101647082298398e-02,3.688242248763856646e-02,3.275469244851951511e-02,2.894679050936196582e-02,2.553167371226000570e-02,2.254558273853514774e-02,1.998632543514913124e-02,1.781437063008683985e-02,1.595824696557602423e-02,1.432322311768279184e-02,1.280234244560809684e-02,1.129010569757499249e-02,9.698324027538684361e-03,7.970628686459318643e-03,6.090719093563434425e-03,4.082502290121741741e-03,2.004521057495191761e-03,-5.810973142517808303e-05,-2.002963325649363344e-03,-3.721069855052691003e-03,-5.109922991196960695e-03,-6.088715587608139850e-03,-6.613797129444918578e-03,-6.690576805364449771e-03,-6.378524881334399557e-03,-5.787624469336170516e-03,-5.065296603202157875e-03,-4.373782187261635555e-03,-3.862212789168228012e-03,-3.642559204995544052e-03,-3.777820272043482669e-03,-4.283501732900126327e-03,-5.136474195302363072e-03,-6.284543460390330100e-03,-7.654307129738005880e-03,-9.158643085299343276e-03,-1.070523523740073493e-02,-1.220518312592884687e-02,-1.357869045277492956e-02,-1.475498351445981952e-02,-1.566733266823108067e-02,-1.624965852027578442e-02,-1.644222078890390099e-02,-1.620679933359577690e-02,-1.554330573457982957e-02,-1.449848696175822828e-02,-1.316274244158840284e-02,-1.165706596723829931e-02,-1.011535320352617041e-02,-8.667525216765526244e-03,-7.426689925625110621e-03,-6.480362592014332450e-03,-5.884350442790229826e-03,-5.659621437899635052e-03,-5.794618087638436950e-03,-6.254455007021917680e-03,-6.994727593441877299e-03,-7.974869647865043612e-03,-9.166109313670584707e-03,-1.055137752918784526e-02,-1.211794619409072016e-02,-1.384668966524034081e-02,-1.570268626914823884e-02,-1.763046263887035198e-02,-1.955549580304920959e-02,-2.139183937185157661e-02,-2.305316118309152715e-02,-2.446293489521636846e-02,-2.556126715226567092e-02,-2.630893870774327417e-02,-2.668959817763275066e-02,-2.670856388988812266e-02,-2.638555272224263684e-02,-2.574084329940319951e-02,-2.477812382486853024e-02,-2.347103025481198785e-02,-2.176172703749086959e-02,-1.957541396163375857e-02,-1.684604973030966180e-02,-1.354277861891102670e-02,-9.688129422767997878e-03,-5.365412290438575059e-03,-7.172228993165028843e-04,4.062798508469576617e-03,8.743571006426545389e-03,1.307443733685601482e-02,1.680709972652866951e-02,1.972092804956488213e-02,2.164694577964710459e-02,2.248303802427121037e-02,2.219687472119952210e-02,2.082052861917304404e-02,1.844412726703985664e-02,1.521267237945742902e-02,1.132398664551980544e-02,7.021169606729985545e-03,2.573232369561410503e-03,-1.756276839071790104e-03,-5.744575506323871747e-03,-9.236892443233507208e-03,-1.215683276479876188e-02,-1.449844697839468115e-02,-1.630575406366543273e-02,-1.764876565816818690e-02,-1.860314602662157049e-02,-1.923613774426277678e-02,-1.959840015745192149e-02,-1.972079776743296958e-02,-1.961521603034170266e-02,-1.927873697923826110e-02,-1.870130057530982465e-02,-1.787704228711855386e-02,-1.681770006370323853e-02,-1.556410770573142879e-02,-1.419080832293214724e-02,-1.279989063584036253e-02,-1.150335580589684908e-02,-1.039840195037412991e-02,-9.544484117112499166e-03,-8.950883489159053297e-03,-8.578402809769439599e-03,-8.352957876705121090e-03,-8.185653635085284041e-03,-7.993517342234973330e-03,-7.716114785362620902e-03,-7.324331229126932602e-03,-6.819121000710796909e-03,-6.221747859832932846e-03,-5.561023566633276766e-03,-4.863280159681659595e-03,-4.147417054646472707e-03,-3.423790897465154616e-03,-2.694354252640895550e-03,-1.952814431606651009e-03,-1.186428550129950497e-03,-3.823070070769174727e-04,4.616617311958560164e-04,1.326072755039741204e-03,2.166047229505852628e-03,2.916951675027659296e-03,3.507208677813321469e-03,3.872937313765990961e-03,3.969737115482584525e-03,3.778602728700262287e-03,3.304876798745846368e-03,2.571824216807946494e-03,1.612672443963711387e-03,4.647600865791393543e-04,-8.329092677320539245e-04,-2.240062780928976129e-03,-3.716288308471593204e-03,-5.224736432017708723e-03,-6.737359318789692617e-03,-8.238319825096840701e-03,-9.722325808890954629e-03,-1.118692845876785406e-02,-1.262089100058410955e-02,-1.399299216276286145e-02,-1.524616585969076898e-02,-1.630121062759101389e-02,-1.707189834890569802e-02,-1.748772011370440527e-02,-1.751477594021648432e-02,-1.716560106109068368e-02,-1.649540775716900817e-02,-1.558898632697959530e-02,-1.454464044216194005e-02,-1.345994341256774758e-02,-1.242185695294106482e-02,-1.150223116606208414e-02,-1.075801651471860500e-02,-1.023337946253476995e-02,-9.960559128206760218e-03,-9.958828100469954703e-03,-1.023353716216910889e-02,-1.077708960768901381e-02,-1.157146277216768507e-02,-1.259030533459491036e-02,-1.379947604602593803e-02,-1.515722457961706307e-02,-1.661639019641714121e-02,-1.812952448346739909e-02,-1.965506953605374377e-02,-2.116183301701111616e-02,-2.263113800454268076e-02,-2.405801789626424783e-02,-2.545210289510496660e-02,-2.683740235758847945e-02,-2.825030456372110838e-02,-2.973583958573354849e-02,-3.134205337182338624e-02,-3.311193146111419267e-02,-3.507337597196892587e-02,-3.722966588558882656e-02,-3.955325490893870505e-02,-4.198433281795008187e-02,-4.443384879724531639e-02,-4.678959577662984010e-02,-4.892394449301656206e-02,-5.070316634479698353e-02,-5.199965977696239389e-02,-5.270743590229341746e-02,-5.275809786058938827e-02,-5.213279529117496869e-02,-5.086727088006830905e-02,-4.905001817942401116e-02,-4.681509163647586819e-02,-4.433058399914506509e-02,-4.178222752983400123e-02,-3.935128991652901698e-02,-3.718823092495167348e-02,-3.538693185476496361e-02,-3.396634164375994525e-02,-3.286607298770458790e-02,-3.195958929985044661e-02,-3.108337868998349574e-02,-3.007499746708825264e-02,-2.880992138909876932e-02,-2.722733516665331449e-02,-2.533792517872919189e-02,-2.321294054322267653e-02,-2.096127607546539526e-02,-1.870503340392832073e-02,-1.656178614246164513e-02,-1.463645055085067287e-02,-1.302077441691909532e-02,-1.179572732273388887e-02,-1.103207090296835433e-02,-1.078674135653644867e-02,-1.109573735928488444e-02,-1.196591757572843841e-02,-1.336804680618326052e-02,-1.523290445251934688e-02,-1.745195008646324708e-02,-1.988346013578474319e-02,-2.236413849433122741e-02,-2.472483000929169561e-02,-2.680684228795883819e-02,-2.847425479596346273e-02,-2.962002741106467552e-02,-3.016835535410975974e-02,-3.007745142579291639e-02,-2.934372067549173221e-02,-2.800439238725856150e-02,-2.613546617405814593e-02,-2.384433237249030529e-02,-2.125862648161251298e-02,-1.851398427355788884e-02,-1.574362935111017076e-02,-1.307171241618244190e-02,-1.061038758679057163e-02,-8.459474778536694994e-03,-6.707486277072722755e-03,-5.432028948972901332e-03,-4.696592446439928729e-03,-4.542596057788963158e-03,-4.979674959759221656e-03,-5.978681922188872587e-03,-7.469729915265232133e-03,-9.346012913122817706e-03,-1.147434697465587496e-02,-1.371171269036339756e-02,-1.592318361753430195e-02,-1.799526120871534213e-02,-1.984159364805604744e-02,-2.140189147145066945e-02,-2.263699845276189240e-02,-2.352403058852437640e-02,-2.405524596723642231e-02,-2.424148717718056442e-02,-2.411691988199645212e-02,-2.374049341807156488e-02,-2.319174370045685302e-02,-2.256048862029968669e-02,-2.193053374309053907e-02,-2.135940350896284659e-02,-2.085952791681822474e-02,-2.038800403741403491e-02,-1.984990321724264262e-02,-1.911533129409264190e-02,-1.804629182185782388e-02,-1.652752807983664737e-02,-1.449494788502507688e-02,-1.195548919478127588e-02,-8.993635044349943680e-03,-5.761889714760978776e-03,-2.456239372664793807e-03,7.170415070778275030e-04,3.573867792745967498e-03,5.976910872463509633e-03,7.849844137095472046e-03,9.182069676898264171e-03,1.002513799936697626e-02,1.048169253427192957e-02,1.068838291256999501e-02,1.079473219941690272e-02,1.093958604051757828e-02,1.122723282696923806e-02,1.170718012994522751e-02,1.236267755185783447e-02,1.311157879125233149e-02,1.381972638603872622e-02,1.432380991001270046e-02,1.445880488282331663e-02,1.408447212431732272e-02,1.310606137969645008e-02,1.148640171834364350e-02,9.248972518631649181e-03,6.473569111361372579e-03,3.287694607754718373e-03,-1.430379536878447259e-04,-3.624188223864438247e-03,-6.942780555832706209e-03,-9.880567331286919594e-03,-1.223048381269922248e-02,-1.381448954388079728e-02,-1.450043620849490560e-02,-1.421638314994786746e-02,-1.296120691520594344e-02,-1.080957613203612465e-02,-7.909132100149804390e-03,-4.469199529249952979e-03,-7.421983392514161417e-04,2.999649812119438604e-03,6.488444746487008821e-03,9.481389998705652689e-03,1.177557717311867626e-02,1.321651084132071871e-02,1.370196960433364003e-02,1.318381416446232253e-02,1.167078607926537448e-02,9.234323897484578852e-03,6.015811906756737652e-03,2.229255320743091674e-03,-1.847619465811030804e-03,-5.896536880246614279e-03,-9.592151444884584183e-03,-1.263765484285688141e-02,-1.479467351501171507e-02,-1.590281858298419823e-02,-1.588787536362958400e-02,-1.476100851120313272e-02,-1.261376309062225802e-02,-9.612777392074023722e-03,-5.993768868310911033e-03,-2.050308704072576534e-03,1.887231009257233716e-03,5.483454160776358825e-03,8.436332339640442018e-03,1.051450610082199470e-02,1.158500578436939647e-02,1.162489721543635834e-02,1.071482552312574658e-02,9.018454689046379383e-03,6.756179223478789471e-03,4.180858379783581290e-03,1.558186809617598690e-03,-8.510667530004386271e-04,-2.810822300294785279e-03,-4.131632424407877431e-03,-4.690883665498347260e-03,-4.446702261013420372e-03,-3.442885089953394255e-03,-1.803810703979103185e-03,2.805191746038983584e-04,2.577612821053234474e-03,4.841156898938004868e-03,6.842645061614307904e-03,8.402386738279558551e-03,9.413798361039558624e-03,9.854770054699577009e-03,9.784350774040205881e-03,9.327836792832607665e-03,8.654593137803144251e-03,7.952057376599642319e-03,7.399038872510026177e-03,7.141690217305318722e-03,7.275292619152119375e-03,7.833969050021183031e-03,8.789109173483971790e-03,1.005576442680329065e-02,1.150465539872783279e-02,1.297712979479895279e-02,1.430211976928511160e-02,1.531534267719772933e-02,1.587893362836690497e-02,1.589650908885369140e-02,1.531924830857079624e-02,1.414300661328852723e-02,1.240009431659484622e-02,1.015037372903202992e-02,7.475772098814515917e-03,4.479794526933597934e-03,1.289859231919846579e-03,-1.941693936377208388e-03,-5.041119492524839645e-03,-7.822239962544665429e-03,-1.009990282213457137e-02,-1.170611061109150253e-02,-1.250709777888022421e-02,-1.241966816066100363e-02,-1.142426698340349295e-02,-9.571513244894734943e-03,-6.980227663577139724e-03,-3.827812581167173295e-03,-3.355153267701164880e-04,3.249175780677107574e-03,6.671670189774743867e-03,9.690008296676487151e-03,1.209412022463814476e-02,1.372357697491698170e-02,1.448276687361700968e-02,1.435147295399924645e-02,1.338776176903246941e-02,1.172073028891317849e-02,9.533168954455162325e-03,7.037235281046826628e-03,4.448470518545572308e-03,1.963725163282357619e-03,-2.541075742583393925e-04,-2.085667211002778434e-03,-3.461495576225155895e-03,-4.365387571093497232e-03,-4.832873066690035121e-03,-4.943480824334548634e-03,-4.806773920433324472e-03,-4.543758169120984750e-03,-4.267527509413910486e-03,-4.068027528655694842e-03,-4.004154446602514739e-03,-4.103484938477096507e-03,-4.367764048570885703e-03,-4.781498393917482312e-03,-5.320831418630046251e-03,-5.959708754578975018e-03,-6.670872259514142380e-03,-7.421009768233169900e-03,-8.162217506116706961e-03,-8.825069172811931054e-03,-9.319598074047658748e-03,-9.546761970138107831e-03,-9.416277812433258496e-03,-8.863154795145338286e-03,-7.858042709792491254e-03,-6.411564004748914608e-03,-4.574438260900520921e-03,-2.433709577248485169e-03,-1.048180878399381075e-04,2.279409407578298404e-03,4.581023303367216803e-03,6.669210831736012597e-03,8.431096801785078337e-03,9.778763866432574337e-03,1.065154649786350521e-02,1.101613661249854770e-02,1.086874810852731833e-02,1.024112416901427035e-02,9.207187724214634800e-03,7.883952864412220249e-03,6.421487740738960649e-03,4.980740125617235357e-03,3.703215278178591426e-03,2.681533265747699721e-03,1.941119780372001875e-03,1.438953451161330060e-03,1.078767956712306823e-03,7.369233439309685624e-04,2.906454712985355373e-04,-3.587636576440655684e-04,-1.271338290984033855e-03,-2.461804349891591123e-03,-3.898187585660588175e-03,-5.504144774486325643e-03,-7.166096110771646467e-03,-8.747414127663675001e-03,-1.010969511227755545e-02,-1.113639868251174898e-02,-1.175121372501956862e-02,-1.192555890636919601e-02,-1.167460226799142166e-02,-1.104558475121578294e-02,-1.010463592018996139e-02,-8.927793226152459446e-03,-7.598470019274136504e-03,-6.209073939272231023e-03,-4.861680489234297339e-03,-3.663609951098840273e-03,-2.717550893732803476e-03,-2.108940541393849143e-03,-1.893496548214815929e-03,-2.086967123661371843e-03,-2.659654004571603957e-03,-3.538283918057016832e-03,-4.615007901485711564e-03,-5.760396844689603946e-03,-6.837574798814781592e-03,-7.716097401442092128e-03,-8.284110702837728032e-03,-8.457550030441763136e-03,-8.187355556228704048e-03,-7.466530673989941851e-03,-6.335995610254279917e-03,-4.885405589624814901e-03,-3.245821196678709639e-03,-1.573735501754343737e-03,-2.843967488556634662e-05,1.252986799244730064e-03,2.177060561083620296e-03,2.705977015147755047e-03,2.857532628937241997e-03,2.693999941385372306e-03,2.304462975400055173e-03,1.786538529376993688e-03,1.232188805109940902e-03,7.193737232948741204e-04,3.083400895680844410e-04,3.992976997869078867e-05,-6.583442348976665821e-05,-1.049592078132444121e-05,1.843009972821658461e-04,4.812186326621753062e-04,8.334743040892509140e-04,1.190803745381848952e-03,1.503951809204500832e-03,1.728313493378040664e-03,1.828034281785019229e-03,1.781258285712156598e-03,1.586058677282491157e-03,1.265380928540756414e-03,8.689053622248683753e-04,4.704314144214405738e-04,1.602912739550964695e-04,3.294968247395219470e-05,1.712016666592760714e-04,6.303795423697552578e-04,1.426784441936326244e-03,2.532316432066409294e-03,3.873450771880443313e-03,5.331858519975835042e-03,6.747763366250739310e-03,7.930458432337989666e-03,8.678643778683952162e-03,8.808753789853587812e-03,8.186191312116907620e-03,6.752869286466247310e-03,4.544381665731788388e-03,1.692314970489355213e-03,-1.588500006585010600e-03,-5.024110095868218780e-03,-8.311836122223609236e-03,-1.115227100791562481e-02,-1.327946053789698551e-02,-1.448722710225693565e-02,-1.464952181135735672e-02,-1.373176975034556130e-02,-1.179118933399189197e-02,-8.966705092739411798e-03,-5.460955255761605447e-03,-1.517874967736454776e-03,2.600090080493807580e-03,6.631946166859668118e-03,1.033487650442846753e-02,1.349979483690474415e-02,1.596719691123053494e-02,1.764164492794057307e-02,1.850048700774340610e-02,1.859200712012448395e-02,1.802080361308311743e-02,1.692331123356376199e-02,1.544115330438516898e-02,1.370070746152126685e-02,1.180313525025878177e-02,9.823707631119886485e-03,7.816684659859697223e-03,5.822498428537122191e-03,3.874929281536587059e-03,2.006471373383610611e-03,2.514824623543827822e-04,-1.351382444532151688e-03,-2.756474750229911692e-03,-3.910379077620747788e-03,-4.756565918272994895e-03,-5.246112612860346497e-03,-5.351488765471771637e-03,-5.079273358447741575e-03,-4.478689416075597694e-03,-3.644299406104695160e-03,-2.711874508016614421e-03,-1.846395679052305512e-03,-1.222036007460472256e-03,-9.967834947638509833e-04,-1.287255919896915755e-03,-2.149639538362662240e-03,-3.570370286642452189e-03,-5.467338300291502140e-03,-7.700610706361348846e-03,-1.009004632465702357e-02,-1.243526911520111480e-02,-1.453372284988568332e-02,-1.619597856232589048e-02,-1.726067558352481837e-02,-1.761086036188478851e-02,-1.718967676625406463e-02,-1.601053457587842468e-02,-1.415807446668045262e-02,-1.178001216051894479e-02,-9.072808560679528761e-03,-6.264139209127403060e-03,-3.593219642403154904e-03,-1.289155967366077378e-03,4.511021060839403435e-04,1.481883922736261777e-03,1.721788248914711680e-03,1.159712199242441798e-03,-1.442107153733262538e-04,-2.060905179102532313e-03,-4.399278008716913865e-03,-6.922255527423515874e-03,-9.374647891453251336e-03,-1.151865289677098635e-02,-1.316716945821037703e-02,-1.420618462209098133e-02,-1.460307944456985980e-02,-1.440236455726150513e-02,-1.371218587196106758e-02,-1.268497999992683652e-02,-1.149502096991976766e-02,-1.031513173591010711e-02,-9.295112918068003036e-03,-8.544639448703015422e-03,-8.122096279087250362e-03,-8.028902018000022567e-03,-8.208679381903281544e-03,-8.552322853295081517e-03,-8.911217593910881335e-03,-9.119517218470084632e-03,-9.022536547058861156e-03,-8.504570635712655619e-03,-7.509148717260667738e-03,-6.048157810104865320e-03,-4.199978059578296334e-03,-2.098003456397751817e-03,8.888414830060650720e-05,2.180768967984108263e-03,4.010991819423986339e-03,5.444948006078412749e-03,6.389892232859222670e-03,6.795535506034438428e-03,6.648659103888721750e-03,5.966322266536077529e-03,4.790521939437657715e-03,3.184118980293975439e-03,1.226344192933462481e-03,-9.927696603817762894e-04,-3.378033754381018494e-03,-5.833488713158804101e-03,-8.264874145110815903e-03,-1.058048947823126903e-02,-1.269188484151129691e-02,-1.451648371059031592e-02,-1.598351142511584763e-02,-1.704266489173167018e-02,-1.767317165000872534e-02,-1.789035093995879067e-02,-1.774696407976494514e-02,-1.732697258423233910e-02,-1.673145717718795694e-02,-1.606099357929992311e-02,-1.540166868922867097e-02,-1.481891155235181765e-02,-1.435652035156557461e-02,-1.403456540942996274e-02,-1.384314183193111059e-02,-1.373569688740362144e-02,-1.362886804623287922e-02,-1.341286631101162169e-02,-1.297102799723054249e-02,-1.220328622014696905e-02,-1.104723935139515639e-02,-9.492153236866902530e-03,-7.584154145046749854e-03,-5.422814752748674784e-03,-3.150159482480289260e-03,-9.339230506323066387e-04,1.052323978973728662e-03,2.649393462637814663e-03,3.730823865846543633e-03,4.217677126927527921e-03,4.087862676305432930e-03,3.378231800955262387e-03,2.179503417020045401e-03,6.259099988946122215e-04,-1.118451400924959588e-03,-2.875424086147272164e-03,-4.470051242248527720e-03,-5.748061391416633970e-03,-6.591191132494580995e-03,-6.927562038442663939e-03,-6.735536658982222390e-03,-6.041555741451218667e-03,-4.914148202697925412e-03,-3.456601471613598552e-03,-1.799939168502164228e-03,-9.715198648066101193e-05,1.481200984158108965e-03,2.752022611479853099e-03,3.529292493012316147e-03,3.641196656398782740e-03,2.953934993033987145e-03,1.397634577217147589e-03,-1.012164709625189849e-03,-4.163784193439064481e-03,-7.853031282728382273e-03,-1.180037909547309270e-02,-1.567798485691913185e-02,-1.914309886616191031e-02,-2.187513981341272090e-02,-2.361190691522694479e-02,-2.417820164970413410e-02,-2.350218524159039882e-02,-2.162073244119860210e-02,-1.867826777667116675e-02,-1.492020226156622574e-02,-1.067702575377918808e-02,-6.335043253190106305e-03,-2.294843884671206487e-03,1.075679411638222381e-03,3.484180081745028197e-03,4.744057711547515661e-03,4.787705552082762925e-03,3.664183429118053701e-03,1.526526620691749788e-03,-1.386756726767400874e-03,-4.774729169484404935e-03,-8.301438580175289281e-03,-1.162480938336318652e-02,-1.442125280407471552e-02,-1.640184604628317638e-02,-1.732180484002745352e-02,-1.698954733545348858e-02,-1.528025202728780681e-02,-1.215322776756128445e-02,-7.667863330827605350e-03,-1.991875530959731199e-03,4.602725322604523175e-03,1.175746842295310665e-02,1.905747258939880645e-02,2.607013449312795689e-02,3.238855408505018907e-02,3.767641413633007752e-02,4.171000252161003591e-02,4.440967308540421515e-02,4.585158512641534373e-02,4.625462515387065987e-02,4.594438007252116263e-02,4.530156409591865052e-02,4.470515373714127605e-02,4.448071535904950247e-02,4.486216927515671721e-02,4.597190422028182150e-02,4.782102067189022282e-02,5.032807656282281550e-02,5.335031629048522794e-02,5.671727476864438233e-02,6.025619975762426528e-02,6.380386344087182748e-02,6.720711083364433458e-02,7.031971665087539958e-02,7.300346325745912801e-02,7.513766904278178227e-02,7.663581340006948850e-02,7.746338487779483306e-02,7.764993508084329366e-02,7.729039945229868036e-02,7.653444724747696104e-02,7.556638263480763840e-02,7.458047672520512483e-02,7.375670733731402862e-02,7.324006041477987283e-02,7.312451718211335217e-02,7.344281991096722473e-02,7.416457164010682723e-02,7.520464664363205043e-02,7.644015080832937403e-02,7.773077697632271854e-02,7.893752304614495841e-02,7.993733632483698837e-02,8.063295766291066202e-02,8.095710894320673479e-02,8.087084557201282276e-02,8.035833378146590988e-02,7.942155896251958114e-02,7.807754089318547086e-02,7.635957862899145354e-02,7.432210983046588781e-02,7.204428951578496776e-02,6.962489218456958950e-02,6.716647296552359647e-02,6.475614765975074016e-02,6.245369867074664072e-02,6.029161750711279494e-02,5.828320355868238378e-02,5.643197281375698926e-02,5.473868977136492342e-02,5.320615606032007977e-02,5.184285881344805752e-02,5.066501009275731909e-02,4.969493740742383925e-02,4.895418789670521326e-02,4.845182026733618752e-02,4.817096630348880609e-02,4.805851447704279078e-02,4.802188196682932037e-02,4.793327349823656852e-02,4.763889291002949139e-02,4.697150518250201717e-02,4.576810430511676214e-02,4.389443049646723355e-02,4.127206914459006365e-02,3.789785097930897795e-02,3.384678336620695893e-02,2.925793172800757180e-02,2.431001529102534350e-02,1.919499877200576271e-02,1.409527003262116447e-02,9.166916339356009219e-03,4.529569853398343095e-03,2.620854513256693375e-04,-3.596894298171989055e-03,-7.043841317684190056e-03,-1.010115468143578561e-02,-1.280551650413262396e-02,-1.519574027788863670e-02,-1.730116169758258091e-02,-1.913210912642566638e-02,-2.067607170728438110e-02,-2.190328949787919560e-02,-2.278174380248592507e-02,-2.329667307136073715e-02,-2.346750313460588266e-02,-2.335588983205775723e-02,-2.306117514142161026e-02,-2.270406983645892329e-02,-2.240485890679870182e-02,-2.226490450118280215e-02,-2.235709878554835092e-02,-2.272496265360729462e-02,-2.338629987872277438e-02,-2.433740103026563878e-02,-2.555599230834858931e-02,-2.700352633507857245e-02,-2.862843548115463418e-02,-3.037047589333816133e-02,-3.216399078981563991e-02,-3.393820180552927640e-02,-3.561573898880201344e-02,-3.711325178273846420e-02,-3.834741845754931905e-02,-3.924670833842246881e-02,-3.976670096724647940e-02,-3.990552387513619792e-02,-3.971473535665107774e-02,-3.930046652130810697e-02,-3.881193716394647220e-02,-3.841906135169143727e-02,-3.828516426154963265e-02,-3.854206615692742227e-02,-3.927202615820286902e-02,-4.049768175172398232e-02,-4.218054937527532244e-02,-4.422846790986054849e-02,-4.650977404203889692e-02,-4.886979534007175607e-02,-5.114627300521600028e-02,-5.318247591456083667e-02,-5.483744446256709482e-02,-5.599287011338903441e-02,-5.655729969601717283e-02,-5.647016069593362164e-02,-5.570824290627471309e-02,-5.429437912016363971e-02,-5.230439577887908975e-02,-4.986759025330270156e-02,-4.715831955306343942e-02,-4.437983560304102626e-02,-4.174509617667009065e-02,-3.946107875098014972e-02,-3.772052125027604286e-02,-3.669862952877408352e-02,-3.654746363510181367e-02,-3.738238333463813484e-02,-3.926182288429829609e-02,-4.216729398558102804e-02,-4.599029091032641459e-02,-5.052927584839395081e-02,-5.549831910375395416e-02,-6.054875806239375796e-02,-6.530292683526259245e-02,-6.939559161657828101e-02,-7.251717294286097459e-02,-7.445265687869070947e-02,-7.511003730487020302e-02,-7.453329535826777597e-02,-7.289761562422533703e-02,-7.048731566421077843e-02,-6.766005282110575114e-02,-6.480426820259947707e-02,-6.229731055278411173e-02,-6.046834202882459680e-02,-5.956737059830137515e-02,-5.974216471725315308e-02,-6.102531230028804959e-02,-6.333120843130597699e-02,-6.645920866369663116e-02,-7.009854601342158098e-02,-7.383347339300279366e-02,-7.715076593589152709e-02,-7.945349757515547673e-02,-8.008424300680630492e-02,-7.835965600439022405e-02,-7.361828293302194459e-02,-6.528167553597696848e-02,-5.292281824164887793e-02,-3.632947077963970955e-02,-1.554900265950050035e-02,9.093998644258759895e-03,3.700882081669302354e-02,6.737301033049726551e-02,9.918117768696348147e-02,1.313006229026977001e-01,1.625293571606307441e-01,1.916544645723157470e-01,2.175107231200757441e-01,2.390407828139683721e-01,2.553571671407428023e-01,2.658036712289922332e-01,0.000000000000000000e+00,0.000000000000000000e+00,0.000000000000000000e+00,0.000000000000000000e+00,0.000000000000000000e+00,0.000000000000000000e+00,0.000000000000000000e+00,0.000000000000000000e+00,0.000000000000000000e+00,0.000000000000000000e+00,0.000000000000000000e+00,0.000000000000000000e+00,0.000000000000000000e+00,0.000000000000000000e+00,0.000000000000000000e+00,0.000000000000000000e+00,0.000000000000000000e+00,0.000000000000000000e+00,0.000000000000000000e+00,0.000000000000000000e+00,0.000000000000000000e+00,0.000000000000000000e+00,0.000000000000000000e+00,0.000000000000000000e+00,0.000000000000000000e+00,0.000000000000000000e+00,0.000000000000000000e+00,0.000000000000000000e+00,0.000000000000000000e+00,0.000000000000000000e+00,0.000000000000000000e+00,0.000000000000000000e+00,0.000000000000000000e+00,0.000000000000000000e+00,0.000000000000000000e+00,0.000000000000000000e+00,0.000000000000000000e+00,0.000000000000000000e+00,0.000000000000000000e+00,0.000000000000000000e+00
