7.287886967075936084e-01,7.281560241046964865e-01,7.197344989398557491e-01,7.046388641648730911e-01,6.841782915080856231e-01,6.597270759433180309e-01,6.325941051696137851e-01,6.039101936895162615e-01,5.745507757424973549e-01,5.451052554089483859e-01,5.158949882829702016e-01,4.870303227207024022e-01,4.584869824212732814e-01,4.301798684913217818e-01,4.020202179144488630e-01,3.739539957754592914e-01,3.459872271971277669e-01,3.182039401467956496e-01,2.907769586073691848e-01,2.639671874317134348e-01,2.381075706162169570e-01,2.135721647538458001e-01,1.907348775781397276e-01,1.699251351540125576e-01,1.513892101776438681e-01,1.352647689576757239e-01,1.215717950824061477e-01,1.102179850054584298e-01,1.010141962862458748e-01,9.369611429064979291e-02,8.794938286936261618e-02,8.343483884078821411e-02,7.980995235797681830e-02,7.674445156153397729e-02,7.393102692645242557e-02,7.109354633400624679e-02,6.799510562519185675e-02,6.444718749136073288e-02,6.031955886087503327e-02,5.554881129160380016e-02,5.014268414300175614e-02,4.417807016843610518e-02,3.779227564423783686e-02,3.116901820849359364e-02,2.452221412675608531e-02,1.808051138948328987e-02,1.207325219684552212e-02,6.716196796343687839e-03,2.195678336568789284e-03,-1.347301673368186915e-03,-3.829386002205964305e-03,-5.230703254673106130e-03,-5.593871119539800194e-03,-5.017668804855470767e-03,-3.647344309672956395e-03,-1.663158708253791203e-03,7.319911581205724950e-04,3.325895954700231784e-03,5.911481070792358634e-03,8.301500335528708835e-03,1.034129006075460919e-02,1.191760730507256290e-02,1.296351440138346009e-02,1.346046059991037706e-02,1.343731746984187098e-02,1.296423173966039684e-02,1.213976221401851831e-02,1.107265182545992717e-02,9.862557274022533058e-03,8.585311694468978835e-03,7.286718480013379060e-03,5.985101477372138830e-03,4.679649949981006321e-03,3.361107823151656109e-03,2.022700216825829098e-03,6.701369170885082115e-04,-6.706437982286478491e-04,-1.949666266145707759e-03,-3.094398479376863232e-03,-4.016913867866041613e-03,-4.625866725305609155e-03,-4.841179042580578094e-03,-4.608164554735165452e-03,-3.907091088309820083e-03,-2.755396676484917363e-03,-1.203320920476618448e-03,6.733267422509253523e-04,2.779847138012187403e-03,5.007571905184544231e-03,7.237406204247008243e-03,9.343059545223887652e-03,1.119519223058638296e-02,1.266709512912498822e-02,1.364163412206475037e-02,1.401912963780492342e-02,1.372646147345395369e-02,1.272762975643754180e-02,1.103451755233249981e-02,8.714785747552362960e-03,5.893736801379087335e-03,2.748907226775617902e-03,-5.020705918508049873e-04,-3.619381077905468608e-03,-6.363238188563067298e-03,-8.517573811754247659e-03,-9.911714952054437311e-03,-1.043734986686108493e-02,-1.005950500856584058e-02,-8.821147342874001429e-03,-6.840482575117171060e-03,-4.299302661990793417e-03,-1.422576585103259078e-03,1.546773965273669574e-03,4.372227079379790299e-03,6.843257811368360678e-03,8.789371173401176046e-03,1.008956864442750630e-02,1.067837167371745062e-02,1.054876940699790364e-02,9.751373417260159396e-03,8.388411743370792137e-03,6.602059202290904913e-03,4.558692816170288944e-03,2.432090477969641763e-03,3.879888157508909084e-04,-1.429456681142278170e-03,-2.909723238574790476e-03,-3.985841235943645214e-03,-4.640002664792591477e-03,-4.902946386712321060e-03,-4.847308178807544117e-03,-4.576885097798435303e-03,-4.213697391093540988e-03,-3.883698431137846008e-03,-3.701740344321816523e-03,-3.757316849459086533e-03,-4.103507688741938643e-03,-4.751252716837291862e-03,-5.669679423469178511e-03,-6.791956983883194569e-03,-8.025677586609264794e-03,-9.266273979155576282e-03,-1.041115320675901207e-02,-1.137211947603143473e-02,-1.208468668114805189e-02,-1.251393195694406463e-02,-1.265687128286210536e-02,-1.254138059857964720e-02,-1.222185999158176446e-02,-1.177217120945398855e-02,-1.127690258385822750e-02,-1.082255025182003554e-02,-1.049020776040609018e-02,-1.035047408854313997e-02,-1.046002076490571558e-02,-1.085863036546438030e-02,-1.156593437691551436e-02,-1.257814428167457373e-02,-1.386613229489781426e-02,-1.537637613868973741e-02,-1.703510503200875853e-02,-1.875444382164619464e-02,-2.043880284866445365e-02,-2.199053699337648327e-02,-2.331535703962548181e-02,-2.432896047301778830e-02,-2.496598065859562121e-02,-2.519080995268584144e-02,-2.500785158261540839e-02,-2.446726337456144387e-02,-2.366271325730475578e-02,-2.272047534046175293e-02,-2.178249222873873681e-02,-2.098774418546288378e-02,-2.045612610857828681e-02,-2.027750640351809117e-02,-2.050624033201790472e-02,-2.115972238423814017e-02,-2.222002037143461228e-02,-2.363895005044637510e-02,-2.534670693278922096e-02,-2.726234173479437362e-02,-2.930305525755412532e-02,-3.139023029246412744e-02,-3.345284270439490698e-02,-3.543077555205616930e-02,-3.727965257689948991e-02,-3.897608071266224494e-02,-4.052021162243132218e-02,-4.193314521873212075e-02,-4.324973258576707974e-02,-4.451043210557300428e-02,-4.575639417490177246e-02,-4.702958684541640177e-02,-4.837664925280813627e-02,-4.985343217605804622e-02,-5.152695795606924978e-02,-5.347211369142796517e-02,-5.576254293807994533e-02,-5.845856762780070326e-02,-6.159630070131709434e-02,-6.518035815602818417e-02,-6.918055138199853682e-02,-7.353214252749981639e-02,-7.813906075628859749e-02,-8.287989096529341237e-02,-8.761724749048349636e-02,-9.221103900204664916e-02,-9.653451700938650570e-02,-1.004898782721377615e-01,-1.040191464708112995e-01,-1.071072821230707045e-01,-1.097779419435736259e-01,-1.120857108491643550e-01,-1.141087778803682590e-01,-1.159430514066545487e-01,-1.176961378429670080e-01,-1.194796032844212541e-01,-1.213996174448520454e-01,-1.235476179753259157e-01,-1.259927474549707438e-01,-1.287766329433722157e-01,-1.319099367705881265e-01,-1.353699742288433094e-01,-1.390996042703600832e-01,-1.430089476172783647e-01,-1.469820538465242132e-01,-1.508895446485224723e-01,-1.546061068626542190e-01,-1.580297425700641911e-01,-1.610983519214365389e-01,-1.637989857276973826e-01,-1.661673096966896634e-01,-1.682789857625577867e-01,-1.702370723494872617e-01,-1.721581820171687871e-01,-1.741579576151047748e-01,-1.763364961240556084e-01,-1.787657393858395061e-01,-1.814812005373122872e-01,-1.844791913458422583e-01,-1.877192040948058305e-01,-1.911303737482959730e-01,-1.946208758859516996e-01,-1.980892929903023403e-01,-2.014373337233899552e-01,-2.045833879512628517e-01,-2.074756269657527796e-01,-2.101019963289099124e-01,-2.124938280522842560e-01,-2.147210627295954577e-01,-2.168799646820758487e-01,-2.190770378544400765e-01,-2.214135583654846529e-01,-2.239732818271652215e-01,-2.268133738102097730e-01,-2.299576594058823642e-01,-2.333921807843481466e-01,-2.370643431980306581e-01,-2.408870828477659987e-01,-2.447482474193745372e-01,-2.485236735764588534e-01,-2.520912137100864148e-01,-2.553427717354003201e-01,-2.581925420085742218e-01,-2.605813803549014707e-01,-2.624781692907661168e-01,-2.638787755531888379e-01,-2.648024819034260902e-01,-2.652856158980212986e-01,-2.653730255472985244e-01,-2.651092341093133076e-01,-2.645313934172383585e-01,-2.636656869495718203e-01,-2.625279554821428052e-01,-2.611278370773842394e-01,-2.594742615017681109e-01,-2.575800097044380621e-01,-2.554642969308954514e-01,-2.531535442939190084e-01,-2.506806686734721623e-01,-2.480830092881204929e-01,-2.453992448382755209e-01,-2.426657031691246136e-01,-2.399120915936236165e-01,-2.371571825472681139e-01,-2.344061997954566823e-01,-2.316514358405445950e-01,-2.288757014101475140e-01,-2.260567387059864708e-01,-2.231711598847860023e-01,-2.201977731305581054e-01,-2.171204991273451845e-01,-2.139305760624840014e-01,-2.106278612880776724e-01,-2.072215360267159745e-01,-2.037300137733255023e-01,-2.001788662690852094e-01,-1.965961464216519350e-01,-1.930066094329112303e-01,-1.894273763122263365e-01,-1.858661923013054662e-01,-1.823214758443225114e-01,-1.787828790621820152e-01,-1.752320610505009868e-01,-1.716445864401583421e-01,-1.679939965853128880e-01,-1.642578772013932320e-01,-1.604243623213695291e-01,-1.564970465978760550e-01,-1.524966217502009003e-01,-1.484585296634108598e-01,-1.444275707362120964e-01,-1.404516638622071156e-01,-1.365764179846888637e-01,-1.328406057080543656e-01,-1.292720737431388434e-01,-1.258842034442446411e-01,-1.226733940974572695e-01,-1.196180139616355581e-01,-1.166794971994785657e-01,-1.138063711090731012e-01,-1.109411817165316533e-01,-1.080289829321833539e-01,-1.050254799269884631e-01,-1.019035821354646459e-01,-9.865829608755942448e-02,-9.531012024057908261e-02,-9.190595411261159864e-02,-8.851565475339842615e-02,-8.522335894822903601e-02,-8.211489515248461546e-02,-7.926445167620672916e-02,-7.672415244838937110e-02,-7.451882709383653158e-02,-7.264567052887793697e-02,-7.107655958391279061e-02,-6.976098886021778189e-02,-6.862945643125942241e-02,-6.759855154615587725e-02,-6.657844237267233900e-02,-6.548181666507632559e-02,-6.423229753802002506e-02,-6.277054991159489172e-02,-6.105748143229232372e-02,-5.907519868211685843e-02,-5.682674704467251953e-02,-5.433545319840873966e-02,-5.164439106611987823e-02,-4.881571077480346965e-02,-4.592858948998983226e-02,-4.307457278232709047e-02,-4.035024847164551259e-02,-3.784844050354783246e-02,-3.564965151532568238e-02,-3.381520860821107810e-02,-3.238234201630165593e-02,-3.136012344136539925e-02,-3.072575296246004770e-02,-3.042273615383169968e-02,-3.036316202718314025e-02,-3.043464652400754145e-02,-3.051048580215253575e-02,-3.046088335760942581e-02,-3.016370605452940029e-02,-2.951405305051958347e-02,-2.843242354082616691e-02,-2.687158880460547086e-02,-2.482229113544264648e-02,-2.231733305400998221e-02,-1.943288158964309037e-02,-1.628557206961167916e-02,-1.302448620673274556e-02,-9.818053655529963841e-03,-6.837094621831068565e-03,-4.236373942450992990e-03,-2.137411231971738344e-03,-6.144185835743844930e-04,3.155189940139610234e-04,6.964561664653458762e-04,6.299848272791294147e-04,2.636989507783385825e-04,-2.260793785885682251e-04,-6.534298523465430306e-04,-8.399535204648544279e-04,-6.273112713532182950e-04,1.153160167262284939e-04,1.487174785975210224e-03,3.552856754599878313e-03,6.338902077800197266e-03,9.830461566326192946e-03,1.396935813601735479e-02,1.865508217984483338e-02,2.374977984291207905e-02,2.908748206558808488e-02,3.448710327933322134e-02,3.976795722514033654e-02,4.476559971696635054e-02,4.934527132998447335e-02,5.341065973572668019e-02,5.690715775267590065e-02,5.982043673962710029e-02,6.217185077818404570e-02,6.401197492487106788e-02,6.541341851571697008e-02,6.646387911116967417e-02,6.725946294553519778e-02,6.789726611894952857e-02,6.846664448355818666e-02,6.904040025724542118e-02,6.966845802024473899e-02,7.037614783623906412e-02,7.116713302917354600e-02,7.202871127761863168e-02,7.293665557991517445e-02,7.385863588773962374e-02,7.475753420315837949e-02,7.559611615926170591e-02,7.634271266228238872e-02,7.697603752956266865e-02,7.748753770319428968e-02,7.788127696677203671e-02,7.817282848985020183e-02,7.838888422790581123e-02,7.856817880624043793e-02,7.876292180213913252e-02,7.903913094156908570e-02,7.947394245418328007e-02,8.014847677957583072e-02,8.113670803687540733e-02,8.249295917551600910e-02,8.424142470480376621e-02,8.637002195805522364e-02,8.882885905422438499e-02,9.153234692266463968e-02,9.436405876521443414e-02,9.718407693058490893e-02,9.983913476782931007e-02,1.021757274192190978e-01,1.040551473400495447e-01,1.053685194219436544e-01,1.060508059756602867e-01,1.060941554660221053e-01,1.055604578268366234e-01,1.045901495661004099e-01,1.034015774939930354e-01,1.022754961824702408e-01,1.015231051032266796e-01,1.014415454769948405e-01,1.022654733854061748e-01,1.041251931770505595e-01,1.070199781350972684e-01,1.108107155767738272e-01,1.152317905972714135e-01,1.199200027703475752e-01,1.244569328414417558e-01,1.284191422719347941e-01,1.314292809342287593e-01,1.332016640433221211e-01,1.335769043794909350e-01,1.325409673804259780e-01,1.302253943600606978e-01,1.268880412049100403e-01,1.228769927087210306e-01,1.185832094162753425e-01,1.143890263208831304e-01,1.106198010423591338e-01,1.075054562005369752e-01,1.051573069823306811e-01,1.035625172335534194e-01,1.025945252008304137e-01,1.020353147436587754e-01,1.016054039529580288e-01,1.009982218566537332e-01,9.991561146343565236e-02,9.810095318532793818e-02,9.536657295988192062e-02,9.161234058952325010e-02,8.683288076339441830e-02,8.111266309962213150e-02,7.461106459190054718e-02,6.754148018123926067e-02,6.014856645186876516e-02,5.268645252033705290e-02,4.539987218437287891e-02,3.850997990819922390e-02,3.220578609288511640e-02,2.664037906571823863e-02,2.192976491897251357e-02,1.815195981161243574e-02,1.534459934018860688e-02,1.350063601984190231e-02,1.256337425652654521e-02,1.242349910112194519e-02,1.292137920423667118e-02,1.385718924055935782e-02,1.500912695083538376e-02,1.615721984115895543e-02,1.710823149064379795e-02,1.771670940433463931e-02,1.789858985207102432e-02,1.763632191691572038e-02,1.697647388807483129e-02,1.602112287431775237e-02,1.491366042037664541e-02,1.381979290103096426e-02,1.290622139518376663e-02,1.232101074585442713e-02,1.217908955827215652e-02,1.255417963854078313e-02,1.347642575984273929e-02,1.493393057481116372e-02,1.687636247774515832e-02,1.921955734485570472e-02,2.185103065539459322e-02,2.463700067931444068e-02,2.743157862435614130e-02,3.008776595318453026e-02,3.246801495909081015e-02,3.445124988604715555e-02,3.593483397215854747e-02,3.683285681962019525e-02,3.707423800265137459e-02,3.660403697907468196e-02,3.538875301847219795e-02,3.342323136283647383e-02,3.073545303162269690e-02,2.738616814495759694e-02,2.346215958238072677e-02,1.906428892135781511e-02,1.429344264852560296e-02,9.238308656937053998e-03,3.968689602878634239e-03,-1.462766023512331081e-03,-7.008586586022640813e-03,-1.260371013098734137e-02,-1.813354882025370110e-02,-2.339777409890003712e-02,-2.807771849176452297e-02,-3.171605295959355197e-02,-3.371547091580409661e-02,-3.335969776969537753e-02,-2.985584733058109855e-02,-2.239184134069566526e-02,-1.019855205186757582e-02,7.392569166258522451e-03,3.089979619109524747e-02,6.064809760081822654e-02,9.673199007689706197e-02,1.389868388296695290e-01,1.869728650037530970e-01,2.399747959518870877e-01,2.970173977701233148e-01,3.568951641686691212e-01,4.182142095046157970e-01,4.794455868550016042e-01,5.389907386759222874e-01,5.952595819575455804e-01,6.467576270511299352e-01,6.921718099711442473e-01,7.304411590510410113e-01,7.608025683888534063e-01,7.828110698617765095e-01,7.963400040421493298e-01,0.000000000000000000e+00,0.000000000000000000e+00,0.000000000000000000e+00,0.000000000000000000e+00,0.000000000000000000e+00,0.000000000000000000e+00,0.000000000000000000e+00,0.000000000000000000e+00,0.000000000000000000e+00,0.000000000000000000e+00,0.000000000000000000e+00,0.000000000000000000e+00,0.000000000000000000e+00,0.000000000000000000e+00,0.000000000000000000e+00,0.000000000000000000e+00,0.000000000000000000e+00,0.000000000000000000e+00,0.000000000000000000e+00,0.000000000000000000e+00,0.000000000000000000e+00,0.000000000000000000e+00,0.000000000000000000e+00,0.000000000000000000e+00,0.000000000000000000e+00,0.000000000000000000e+00,0.000000000000000000e+00,0.000000000000000000e+00,0.000000000000000000e+00,0.000000000000000000e+00,0.000000000000000000e+00,0.000000000000000000e+00,0.000000000000000000e+00,0.000000000000000000e+00,0.000000000000000000e+00,0.000000000000000000e+00,0.000000000000000000e+00,0.000000000000000000e+00,0.000000000000000000e+00,0.000000000000000000e+00,0.000000000000000000e+00,0.000000000000000000e+00,0.000000000000000000e+00,0.000000000000000000e+00,0.000000000000000000e+00,0.000000000000000000e+00,0.000000000000000000e+00,0.000000000000000000e+00,0.000000000000000000e+00,0.000000000000000000e+00,0.000000000000000000e+00,0.000000000000000000e+00,0.000000000000000000e+00,0.000000000000000000e+00,0.000000000000000000e+00,0.000000000000000000e+00,0.000000000000000000e+00,0.000000000000000000e+00,0.000000000000000000e+00,0.000000000000000000e+00,0.000000000000000000e+00,0.000000000000000000e+00,0.000000000000000000e+00,0.000000000000000000e+00,0.000000000000000000e+00,0.000000000000000000e+00,0.000000000000000000e+00,0.000000000000000000e+00,0.000000000000000000e+00,0.000000000000000000e+00,0.000000000000000000e+00,0.000000000000000000e+00,0.000000000000000000e+00,0.000000000000000000e+00,0.000000000000000000e+00,0.000000000000000000e+00,0.000000000000000000e+00,0.000000000000000000e+00,0.000000000000000000e+00,0.000000000000000000e+00,0.000000000000000000e+00,0.000000000000000000e+00,0.000000000000000000e+00,0.000000000000000000e+00,0.000000000000000000e+00,0.000000000000000000e+00,0.000000000000000000e+00,0.000000000000000000e+00,0.000000000000000000e+00,0.000000000000000000e+00,0.000000000000000000e+00,0.000000000000000000e+00,0.000000000000000000e+00,0.000000000000000000e+00,0.000000000000000000e+00,0.000000000000000000e+00,0.000000000000000000e+00,0.000000000000000000e+00,0.000000000000000000e+00,0.000000000000000000e+00,0.000000000000000000e+00,0.000000000000000000e+00,0.000000000000000000e+00,0.000000000000000000e+00,0.000000000000000000e+00,0.000000000000000000e+00,0.000000000000000000e+00,0.000000000000000000e+00,0.000000000000000000e+00,0.000000000000000000e+00,0.000000000000000000e+00,0.000000000000000000e+00,0.000000000000000000e+00,0.000000000000000000e+00,0.000000000000000000e+00,0.000000000000000000e+00,0.000000000000000000e+00,0.000000000000000000e+00,0.000000000000000000e+00,0.000000000000000000e+00,0.000000000000000000e+00,0.000000000000000000e+00,0.000000000000000000e+00,0.000000000000000000e+00,0.000000000000000000e+00,0.000000000000000000e+00,0.000000000000000000e+00,0.000000000000000000e+00,0.000000000000000000e+00,0.000000000000000000e+00,0.000000000000000000e+00,0.000000000000000000e+00,0.000000000000000000e+00,0.000000000000000000e+00,0.000000000000000000e+00,0.000000000000000000e+00,0.000000000000000000e+00,0.000000000000000000e+00,0.000000000000000000e+00,0.000000000000000000e+00,0.000000000000000000e+00,0.000000000000000000e+00,0.000000000000000000e+00,0.000000000000000000e+00,0.000000000000000000e+00,0.000000000000000000e+00,0.000000000000000000e+00,0.000000000000000000e+00,0.000000000000000000e+00,0.000000000000000000e+00,0.000000000000000000e+00,0.000000000000000000e+00,0.000000000000000000e+00,0.000000000000000000e+00,0.000000000000000000e+00,0.000000000000000000e+00,0.000000000000000000e+00,0.000000000000000000e+00,0.000000000000000000e+00,0.000000000000000000e+00,0.000000000000000000e+00,0.000000000000000000e+00,0.000000000000000000e+00,0.000000000000000000e+00,0.000000000000000000e+00,0.000000000000000000e+00,0.000000000000000000e+00,0.000000000000000000e+00,0.000000000000000000e+00,0.000000000000000000e+00,0.000000000000000000e+00,0.000000000000000000e+00,0.000000000000000000e+00,0.000000000000000000e+00,0.000000000000000000e+00,0.000000000000000000e+00,0.000000000000000000e+00,0.000000000000000000e+00,0.000000000000000000e+00,0.000000000000000000e+00,0.000000000000000000e+00,0.000000000000000000e+00,0.000000000000000000e+00,0.000000000000000000e+00,0.000000000000000000e+00,0.000000000000000000e+00,0.000000000000000000e+00,0.000000000000000000e+00,0.000000000000000000e+00,0.000000000000000000e+00,0.000000000000000000e+00,0.000000000000000000e+00,0.000000000000000000e+00,0.000000000000000000e+00,0.000000000000000000e+00,0.000000000000000000e+00,0.000000000000000000e+00,0.000000000000000000e+00,0.000000000000000000e+00,0.000000000000000000e+00,0.000000000000000000e+00,0.000000000000000000e+00,0.000000000000000000e+00,0.000000000000000000e+00,0.000000000000000000e+00,0.000000000000000000e+00,0.000000000000000000e+00,0.000000000000000000e+00,0.000000000000000000e+00,0.000000000000000000e+00,0.000000000000000000e+00,0.000000000000000000e+00,0.000000000000000000e+00,0.000000000000000000e+00,0.000000000000000000e+00,0.000000000000000000e+00,0.000000000000000000e+00,0.000000000000000000e+00,0.000000000000000000e+00,0.000000000000000000e+00,0.000000000000000000e+00,0.000000000000000000e+00,0.000000000000000000e+00,0.000000000000000000e+00,0.000000000000000000e+00,0.000000000000000000e+00,0.000000000000000000e+00,0.000000000000000000e+00,0.000000000000000000e+00,0.000000000000000000e+00,0.000000000000000000e+00,0.000000000000000000e+00,0.000000000000000000e+00,0.000000000000000000e+00,0.000000000000000000e+00,0.000000000000000000e+00,0.000000000000000000e+00,0.000000000000000000e+00,0.000000000000000000e+00,0.000000000000000000e+00,0.000000000000000000e+00,0.000000000000000000e+00,0.000000000000000000e+00,0.000000000000000000e+00,0.000000000000000000e+00,0.000000000000000000e+00,0.000000000000000000e+00,0.000000000000000000e+00,0.000000000000000000e+00,0.000000000000000000e+00,0.000000000000000000e+00,0.000000000000000000e+00,0.000000000000000000e+00,0.000000000000000000e+00,0.000000000000000000e+00,0.000000000000000000e+00,0.000000000000000000e+00,0.000000000000000000e+00,0.000000000000000000e+00,0.000000000000000000e+00,0.000000000000000000e+00,0.000000000000000000e+00,0.000000000000000000e+00,0.000000000000000000e+00,0.000000000000000000e+00,0.000000000000000000e+00,0.000000000000000000e+00,0.000000000000000000e+00,0.000000000000000000e+00,0.000000000000000000e+00,0.000000000000000000e+00,0.000000000000000000e+00,0.000000000000000000e+00,0.000000000000000000e+00,0.000000000000000000e+00,0.000000000000000000e+00,0.000000000000000000e+00,0.000000000000000000e+00,0.000000000000000000e+00,0.000000000000000000e+00,0.000000000000000000e+00,0.000000000000000000e+00,0.000000000000000000e+00,0.000000000000000000e+00,0.000000000000000000e+00,0.000000000000000000e+00,0.000000000000000000e+00,0.000000000000000000e+00,0.000000000000000000e+00,0.000000000000000000e+00,0.000000000000000000e+00,0.000000000000000000e+00,0.000000000000000000e+00,0.000000000000000000e+00,0.000000000000000000e+00,0.000000000000000000e+00,0.000000000000000000e+00,0.000000000000000000e+00,0.000000000000000000e+00,0.000000000000000000e+00,0.000000000000000000e+00,0.000000000000000000e+00,0.000000000000000000e+00,0.000000000000000000e+00,0.000000000000000000e+00,0.000000000000000000e+00,0.000000000000000000e+00,0.000000000000000000e+00,0.000000000000000000e+00,0.000000000000000000e+00,0.000000000000000000e+00,0.000000000000000000e+00,0.000000000000000000e+00,0.000000000000000000e+00,0.000000000000000000e+00,0.000000000000000000e+00,0.000000000000000000e+00,0.000000000000000000e+00,0.000000000000000000e+00,0.000000000000000000e+00,0.000000000000000000e+00,0.000000000000000000e+00,0.000000000000000000e+00,0.000000000000000000e+00,0.000000000000000000e+00,0.000000000000000000e+00,0.000000000000000000e+00,0.000000000000000000e+00,0.000000000000000000e+00,0.000000000000000000e+00,0.000000000000000000e+00,0.000000000000000000e+00,0.000000000000000000e+00,0.000000000000000000e+00,0.000000000000000000e+00,0.000000000000000000e+00,0.000000000000000000e+00,0.000000000000000000e+00,0.000000000000000000e+00,0.000000000000000000e+00,0.000000000000000000e+00,0.000000000000000000e+00,0.000000000000000000e+00,0.000000000000000000e+00,0.000000000000000000e+00,0.000000000000000000e+00,0.000000000000000000e+00,0.000000000000000000e+00,0.000000000000000000e+00,0.000000000000000000e+00,0.000000000000000000e+00,0.000000000000000000e+00,0.000000000000000000e+00,0.000000000000000000e+00,0.000000000000000000e+00,0.000000000000000000e+00,0.000000000000000000e+00,0.000000000000000000e+00,0.000000000000000000e+00,0.000000000000000000e+00,0.000000000000000000e+00,0.000000000000000000e+00,0.000000000000000000e+00,0.000000000000000000e+00,0.000000000000000000e+00,0.000000000000000000e+00,0.000000000000000000e+00,0.000000000000000000e+00,0.000000000000000000e+00,0.000000000000000000e+00,0.000000000000000000e+00,0.000000000000000000e+00,0.000000000000000000e+00,0.000000000000000000e+00,0.000000000000000000e+00,0.000000000000000000e+00,0.000000000000000000e+00,0.000000000000000000e+00,0.000000000000000000e+00,0.000000000000000000e+00,0.000000000000000000e+00,0.000000000000000000e+00,0.000000000000000000e+00,0.000000000000000000e+00,0.000000000000000000e+00,0.000000000000000000e+00,0.000000000000000000e+00,0.000000000000000000e+00,0.000000000000000000e+00,0.000000000000000000e+00,0.000000000000000000e+00,0.000000000000000000e+00,0.000000000000000000e+00,0.000000000000000000e+00,0.000000000000000000e+00,0.000000000000000000e+00,0.000000000000000000e+00,0.000000000000000000e+00,0.000000000000000000e+00,0.000000000000000000e+00,0.000000000000000000e+00,0.000000000000000000e+00,0.000000000000000000e+00,0.000000000000000000e+00,0.000000000000000000e+00,0.000000000000000000e+00,0.000000000000000000e+00,0.000000000000000000e+00,0.000000000000000000e+00,0.000000000000000000e+00,0.000000000000000000e+00,0.000000000000000000e+00,0.000000000000000000e+00,0.000000000000000000e+00,0.000000000000000000e+00,0.000000000000000000e+00,0.000000000000000000e+00,0.000000000000000000e+00,0.000000000000000000e+00,0.000000000000000000e+00,0.000000000000000000e+00,0.000000000000000000e+00,0.000000000000000000e+00,0.000000000000000000e+00,0.000000000000000000e+00,0.000000000000000000e+00,0.000000000000000000e+00,0.000000000000000000e+00,0.000000000000000000e+00,0.000000000000000000e+00,0.000000000000000000e+00,0.000000000000000000e+00,0.000000000000000000e+00,0.000000000000000000e+00,0.000000000000000000e+00,0.000000000000000000e+00,0.000000000000000000e+00,0.000000000000000000e+00,0.000000000000000000e+00,0.000000000000000000e+00,0.000000000000000000e+00,0.000000000000000000e+00,0.000000000000000000e+00,0.000000000000000000e+00,0.000000000000000000e+00,0.000000000000000000e+00,0.000000000000000000e+00,0.000000000000000000e+00,0.000000000000000000e+00,0.000000000000000000e+00,0.000000000000000000e+00,0.000000000000000000e+00,0.000000000000000000e+00,0.000000000000000000e+00,0.000000000000000000e+00,0.000000000000000000e+00,0.000000000000000000e+00,0.000000000000000000e+00,0.000000000000000000e+00,0.000000000000000000e+00,0.000000000000000000e+00,0.000000000000000000e+00,0.000000000000000000e+00,0.000000000000000000e+00,0.000000000000000000e+00,0.000000000000000000e+00,0.000000000000000000e+00,0.000000000000000000e+00,0.000000000000000000e+00,0.000000000000000000e+00,0.000000000000000000e+00,0.000000000000000000e+00,0.000000000000000000e+00,0.000000000000000000e+00,0.000000000000000000e+00,0.000000000000000000e+00,0.000000000000000000e+00,0.000000000000000000e+00,0.000000000000000000e+00,0.000000000000000000e+00,0.000000000000000000e+00,0.000000000000000000e+00,0.000000000000000000e+00,0.000000000000000000e+00,0.000000000000000000e+00,0.000000000000000000e+00,0.000000000000000000e+00,0.000000000000000000e+00,0.000000000000000000e+00,0.000000000000000000e+00,0.000000000000000000e+00,0.000000000000000000e+00,0.000000000000000000e+00,0.000000000000000000e+00,0.000000000000000000e+00,0.000000000000000000e+00,0.000000000000000000e+00,0.000000000000000000e+00,0.000000000000000000e+00,0.000000000000000000e+00,0.000000000000000000e+00,0.000000000000000000e+00,0.000000000000000000e+00,0.000000000000000000e+00,0.000000000000000000e+00,0.000000000000000000e+00,0.000000000000000000e+00,0.000000000000000000e+00,0.000000000000000000e+00,0.000000000000000000e+00,0.000000000000000000e+00,0.000000000000000000e+00,0.000000000000000000e+00,0.000000000000000000e+00,0.000000000000000000e+00,0.000000000000000000e+00,0.000000000000000000e+00,0.000000000000000000e+00,0.000000000000000000e+00,0.000000000000000000e+00,0.000000000000000000e+00,0.000000000000000000e+00,0.000000000000000000e+00,0.000000000000000000e+00,0.000000000000000000e+00,0.000000000000000000e+00,0.000000000000000000e+00,0.000000000000000000e+00,0.000000000000000000e+00,0.000000000000000000e+00,0.000000000000000000e+00,0.000000000000000000e+00,0.000000000000000000e+00,0.000000000000000000e+00,0.000000000000000000e+00,0.000000000000000000e+00,0.000000000000000000e+00,0.000000000000000000e+00,0.000000000000000000e+00,0.000000000000000000e+00,0.000000000000000000e+00,0.000000000000000000e+00,0.000000000000000000e+00,0.000000000000000000e+00,0.000000000000000000e+00,0.000000000000000000e+00,0.000000000000000000e+00,0.000000000000000000e+00,0.000000000000000000e+00,0.000000000000000000e+00,0.000000000000000000e+00,0.000000000000000000e+00,0.000000000000000000e+00,0.000000000000000000e+00,0.000000000000000000e+00,0.000000000000000000e+00,0.000000000000000000e+00,0.000000000000000000e+00,0.000000000000000000e+00,0.000000000000000000e+00,0.000000000000000000e+00,0.000000000000000000e+00,0.000000000000000000e+00,0.000000000000000000e+00,0.000000000000000000e+00,0.000000000000000000e+00,0.000000000000000000e+00,0.000000000000000000e+00,0.000000000000000000e+00,0.000000000000000000e+00,0.000000000000000000e+00,0.000000000000000000e+00,0.000000000000000000e+00,0.000000000000000000e+00,0.000000000000000000e+00,0.000000000000000000e+00,0.000000000000000000e+00,0.000000000000000000e+00,0.000000000000000000e+00,0.000000000000000000e+00,0.000000000000000000e+00
8.015652755868648560e-01,7.989341011575792351e-01,7.891182136621384124e-01,7.729536748944479951e-01,7.513713412057815288e-01,7.253244254620867526e-01,6.957231437909540128e-01,6.633876092807661218e-01,6.290262094163108220e-01,5.932399979060368755e-01,5.565471817434326507e-01,5.194164310565545506e-01,4.822956750068205234e-01,4.456269801983515633e-01,4.098459538787238565e-01,3.753706307669290587e-01,3.425872035344831312e-01,3.118383044946669846e-01,2.834153524888504694e-01,2.575527616288057486e-01,2.344208369894589805e-01,2.141153431694150788e-01,1.966435970445962467e-01,1.819096175866380949e-01,1.697043561783634080e-01,1.597088424466264478e-01,1.515156062946262372e-01,1.446677016567774476e-01,1.387079372085064655e-01,1.332265024698663092e-01,1.278956039507645748e-01,1.224852883311363522e-01,1.168622881026125521e-01,1.109787339383438015e-01,1.048570347135278913e-01,9.857348280591808620e-02,9.224116928555001205e-02,8.599345510602267317e-02,7.996960292319219010e-02,7.430311226794628077e-02,6.911218913008666809e-02,6.449150209759192676e-02,6.050472822317778943e-02,5.717814922167734765e-02,5.449657002965932473e-02,5.240348354582946566e-02,5.080678380997696864e-02,4.958936500017214338e-02,4.862217786763315536e-02,4.777735422559528655e-02,4.694024510887191692e-02,4.601975252741603156e-02,4.495598744662544777e-02,4.372434802969919765e-02,4.233558758281381895e-02,4.083160564431325551e-02,3.927720906769309461e-02,3.774954461812392997e-02,3.632807168016952137e-02,3.508745570086006793e-02,3.409390957997546906e-02,3.340360551795124727e-02,3.306095372967087637e-02,3.309514404940969157e-02,3.351470537978820663e-02,3.430108959375507277e-02,3.540325931058225378e-02,3.673568942274401533e-02,3.818140695026303599e-02,3.960015135297027117e-02,4.084087259816712029e-02,4.175773166191959485e-02,4.222832854185376572e-02,4.217143483277561306e-02,4.155978647291075356e-02,4.042337042827923166e-02,3.884154891749406341e-02,3.692701263057979189e-02,3.480757466607045658e-02,3.261111751768226014e-02,3.045560797571955289e-02,2.844283432042675128e-02,2.665354239150926480e-02,2.514299540141706757e-02,2.393793444411757010e-02,2.303659298342745909e-02,2.241236887002409986e-02,2.202008374865990076e-02,2.180288004322412584e-02,2.169823786733136514e-02,2.164273942925110453e-02,2.157604621297948971e-02,2.144459076337217399e-02,2.120511955812247329e-02,2.082809208604521553e-02,2.030103611281739578e-02,1.963170286598710929e-02,1.885010966928375026e-02,1.800804197776134999e-02,1.717495684314921528e-02,1.643017616385621799e-02,1.585219200471857035e-02,1.550658418997528411e-02,1.543429753836574915e-02,1.564203235432224184e-02,1.609676730723003449e-02,1.672643774916793974e-02,1.742743612145289389e-02,1.807746754634207212e-02,1.855120413273205621e-02,1.873644266856078558e-02,1.854881027438649854e-02,1.794299420038732856e-02,1.691857875638779624e-02,1.551918957595877641e-02,1.382495128739770832e-02,1.194024508279150319e-02,9.980275229308305240e-03,8.059682268274762085e-03,6.284599731928166601e-03,4.747558739815489065e-03,3.523650077754819643e-03,2.666675203918015147e-03,2.205263538831762037e-03,2.140210988489886761e-03,2.444648284061286432e-03,3.067688512215466495e-03,3.940528420891101918e-03,4.982932126365364166e-03,6.108581043037568381e-03,7.229420257650377886e-03,8.260259273227056262e-03,9.124456547200622894e-03,9.760112615372535522e-03,1.012526767535534312e-02,1.020084315573331624e-02,9.991004946491733457e-03,9.521609826336234136e-03,8.837965310049595083e-03,8.002814134173473135e-03,7.094262458030543665e-03,6.202088359551305961e-03,5.420661585783667462e-03,4.838215042207488249e-03,4.524453204113190220e-03,4.519602777006114132e-03,4.827451098357685676e-03,5.413651979172480304e-03,6.209316574258979225e-03,7.118632227823222698e-03,8.028370485606256546e-03,8.817515132464844377e-03,9.366783831279951178e-03,9.568911169975425485e-03,9.339804589934221427e-03,8.629079131123354798e-03,7.428033114647175118e-03,5.773839253234032062e-03,3.749083608683258153e-03,1.475459427220102105e-03,-8.990736619584951961e-04,-3.218139821094340592e-03,-5.336221077346054407e-03,-7.135821977713778519e-03,-8.540280129880497770e-03,-9.520900844534906093e-03,-1.009755075728636757e-02,-1.033249152423055921e-02,-1.031848634639134440e-02,-1.016377671223148670e-02,-9.977481324034356489e-03,-9.858503489256228644e-03,-9.889246674318688535e-03,-1.013355415792875636e-02,-1.063755955464644118e-02,-1.143243311676691264e-02,-1.253815870551757035e-02,-1.396689756169555013e-02,-1.572402367653491159e-02,-1.780576841858149545e-02,-2.019456026646547844e-02,-2.285514981169132001e-02,-2.573481547106216613e-02,-2.876896663394746048e-02,-3.189079539930393670e-02,-3.504194860676455858e-02,-3.818081903556103107e-02,-4.128617479595689255e-02,-4.435633274950655930e-02,-4.740574347771110003e-02,-5.046002070361495229e-02,-5.354892791735363367e-02,-5.669702795733694289e-02,-5.991348931191333577e-02,-6.318423266713679709e-02,-6.646967779324695902e-02,-6.970949641774744354e-02,-7.283300090597466525e-02,-7.577169422936776144e-02,-7.847034716010735378e-02,-8.089456087958443731e-02,-8.303451292426373975e-02,-8.490550659015899670e-02,-8.654631277807209311e-02,-8.801612777244062491e-02,-8.939022708544243356e-02,-9.075402788972999901e-02,-9.219611796328591735e-02,-9.380194134123460981e-02,-9.564942609437017407e-02,-9.780591107186865918e-02,-1.003245127591696206e-01,-1.032388928681091389e-01,-1.065571576566149564e-01,-1.102568984237418948e-01,-1.142836229739273152e-01,-1.185539161260967117e-01,-1.229630202179525650e-01,-1.273951657198277854e-01,-1.317346853635864290e-01,-1.358765771850997395e-01,-1.397359643363048076e-01,-1.432562337149513587e-01,-1.464154397294861465e-01,-1.492299497088512561e-01,-1.517538175847922832e-01,-1.540729569340470173e-01,-1.562948064950890892e-01,-1.585355273576312674e-01,-1.609070290205893983e-01,-1.635056650095588759e-01,-1.664037907988913934e-01,-1.696445753931856704e-01,-1.732395914556780769e-01,-1.771684225372520127e-01,-1.813801296976256527e-01,-1.857970500315868356e-01,-1.903210064959529602e-01,-1.948408267136352290e-01,-1.992396625299262258e-01,-2.034018095307009444e-01,-2.072200273971915307e-01,-2.106039777017196524e-01,-2.134888711487305524e-01,-2.158423502756871559e-01,-2.176675460297642362e-01,-2.190011387108685148e-01,-2.199070965336710481e-01,-2.204683160145223531e-01,-2.207781380941201410e-01,-2.209322970376522699e-01,-2.210210390055221685e-01,-2.211213025066095517e-01,-2.212892873801431959e-01,-2.215540810434522556e-01,-2.219132981028367202e-01,-2.223319385399182280e-01,-2.227455726474693865e-01,-2.230680897084200975e-01,-2.232028909658199944e-01,-2.230555139004866960e-01,-2.225456692024316563e-01,-2.216171739629268778e-01,-2.202447684139960393e-01,-2.184369691606419805e-01,-2.162342634404444131e-01,-2.137030625032268760e-01,-2.109275737790677341e-01,-2.080021562524917988e-01,-2.050251886153522107e-01,-2.020935830595929628e-01,-1.992961992516227299e-01,-1.967050301641811993e-01,-1.943652125331124803e-01,-1.922873535848108051e-01,-1.904458517951946317e-01,-1.887839589124764850e-01,-1.872226621385709444e-01,-1.856693692370397497e-01,-1.840245475292665023e-01,-1.821874462171917952e-01,-1.800631977130674743e-01,-1.775725847527327150e-01,-1.746636729779270092e-01,-1.713222612232737918e-01,-1.675768441308035095e-01,-1.634952315449181015e-01,-1.591739421741537597e-01,-1.547247007770308491e-01,-1.502619964289090282e-01,-1.458928081302122148e-01,-1.417077940529574975e-01,-1.377739640669944921e-01,-1.341301639013147973e-01,-1.307865594532281184e-01,-1.277279169522818336e-01,-1.249189785617857706e-01,-1.223097163547376826e-01,-1.198393217818207179e-01,-1.174395811004311785e-01,-1.150390818058242837e-01,-1.125690747342465020e-01,-1.099708176734477544e-01,-1.072035284923337217e-01,-1.042515084214987869e-01,-1.011285872479967818e-01,-9.787833035815445004e-02,-9.456974260043647662e-02,-9.128979590699384805e-02,-8.813456474344036340e-02,-8.519985749683831044e-02,-8.257157801603928760e-02,-8.031653521365197945e-02,-7.847504188183267171e-02,-7.705647339449668565e-02,-7.603826638916812153e-02,-7.536817194520759045e-02,-7.496902541715394497e-02,-7.474500923631129112e-02,-7.458876402535631611e-02,-7.438945519060459477e-02,-7.404218122648992262e-02,-7.345863710998516705e-02,-7.257795189212132292e-02,-7.137556903841139888e-02,-6.986772529036602841e-02,-6.810992879683130941e-02,-6.618942110561286396e-02,-6.421316878393089345e-02,-6.229378775895010045e-02,-6.053572659437858605e-02,-5.902338309073174721e-02,-5.781201202908855391e-02,-5.692169235428265472e-02,-5.633481756165985982e-02,-5.599831152928119726e-02,-5.583171167721812100e-02,-5.574069440079032489e-02,-5.563341454621934662e-02,-5.543562204281039796e-02,-5.510095581782734064e-02,-5.461504480234587872e-02,-5.399433144023962211e-02,-5.328112411971999002e-02,-5.253574265928231263e-02,-5.182628281467833997e-02,-5.121709530240859537e-02,-5.075834149685030244e-02,-5.047985959743006568e-02,-5.039132148229658048e-02,-5.048742692822922457e-02,-5.075440417789216924e-02,-5.117431515889020455e-02,-5.172573903784963983e-02,-5.238160755568831844e-02,-5.310626828668760235e-02,-5.385365826543896117e-02,-5.456706508036703734e-02,-5.517991016096577411e-02,-5.561745011869484445e-02,-5.580030172835236807e-02,-5.565071055485998341e-02,-5.510160712866161298e-02,-5.410749519116515166e-02,-5.265513284622116291e-02,-5.077131457271416570e-02,-4.852576982731025834e-02,-4.602867816376807197e-02,-4.342324373323690201e-02,-4.087413847434568509e-02,-3.855301775907448575e-02,-3.662275352026309050e-02,-3.522228876193218838e-02,-3.445407581438781480e-02,-3.437599215380105627e-02,-3.499912199087359954e-02,-3.629097420033003396e-02,-3.818091354604045973e-02,-4.056382443293089085e-02,-4.330145915877845614e-02,-4.622554862784214458e-02,-4.914750785345646522e-02,-5.187583763281458649e-02,-5.423799532256781686e-02,-5.610159206215765276e-02,-5.739011920089727437e-02,-5.808987792518410104e-02,-5.824687445140190600e-02,-5.795489398263237862e-02,-5.733814283768388226e-02,-5.653265186942078163e-02,-5.566952338906164255e-02,-5.486118924403202840e-02,-5.419087541132098368e-02,-5.370574589435186952e-02,-5.341454318860146266e-02,-5.328998409610195136e-02,-5.327499212962361064e-02,-5.329117548463461335e-02,-5.324838109132814384e-02,-5.305495840764680449e-02,-5.262859923652207783e-02,-5.190723279913554006e-02,-5.085895461574951870e-02,-4.948961766432266596e-02,-4.784645372554120063e-02,-4.601630667040101236e-02,-4.411849226592426398e-02,-4.229413922850826235e-02,-4.069396920202614232e-02,-3.946488173117034676e-02,-3.873495484500909941e-02,-3.859768622489493511e-02,-3.909812118705118661e-02,-4.022433161313384437e-02,-4.190674584356011284e-02,-4.402526940143899198e-02,-4.642155739008124032e-02,-4.891325321417314825e-02,-5.130866895606151640e-02,-5.342200080756165370e-02,-5.508892737821230456e-02,-5.618113902909979696e-02,-5.661760213818359949e-02,-5.637056856042069880e-02,-5.546540946785047388e-02,-5.397497780828690306e-02,-5.201034525581242629e-02,-4.970973767108596147e-02,-4.722683301268110201e-02,-4.471905376559243833e-02,-4.233620722853282531e-02,-4.020966181963192554e-02,-3.844237142759613507e-02,-3.710052456385106584e-02,-3.620795787820675626e-02,-3.574446153006317906e-02,-3.564864690282647242e-02,-3.582500639488959276e-02,-3.615378375091938407e-02,-3.650231545656812404e-02,-3.673742735084018635e-02,-3.673912744186275808e-02,-3.641529747317649029e-02,-3.571534076872923125e-02,-3.463928554423890971e-02,-3.323936836513510101e-02,-3.161334577045468719e-02,-2.989114453798756219e-02,-2.821781239673506678e-02,-2.673561942587907372e-02,-2.556719361187865386e-02,-2.480099638297084130e-02,-2.448065772077130317e-02,-2.460000924228939248e-02,-2.510510299971869044e-02,-2.590269187806959819e-02,-2.687258919791159564e-02,-2.788083260346323547e-02,-2.879211615132478558e-02,-2.948190205093142655e-02,-2.984902465411883726e-02,-2.982801963916564825e-02,-2.939821433190643873e-02,-2.858592902991813692e-02,-2.745809099450569751e-02,-2.610907274185286786e-02,-2.464539587215661826e-02,-2.317348998717397648e-02,-2.179334622267922045e-02,-2.059670092166569072e-02,-1.966548082592241981e-02,-1.906698925433264122e-02,-1.884549840231709503e-02,-1.901271471190560738e-02,-1.954064814412592374e-02,-2.035975784524288179e-02,-2.136330838573626684e-02,-2.241684716963319307e-02,-2.337097702271865793e-02,-2.407608374776964988e-02,-2.439806797538486213e-02,-2.423362933954684856e-02,-2.352280420928938229e-02,-2.225636170975238762e-02,-2.047662658381250653e-02,-1.827172998318778163e-02,-1.576473588370188444e-02,-1.310017920547680743e-02,-1.043063995926068327e-02,-7.905015049372483144e-03,-5.658941252870208945e-03,-3.807194393210134014e-03,-2.437990953842231450e-03,-1.609358462316729573e-03,-1.347498698091573622e-03,-1.646372713645748512e-03,-2.467293078938967085e-03,-3.737988133486469088e-03,-5.352415335814259337e-03,-7.174256935898042607e-03,-9.046975708006096961e-03,-1.081097022614465816e-02,-1.232471744601977039e-02,-1.348419286147540044e-02,-1.423535686458281962e-02,-1.457755387993679187e-02,-1.455876248027541779e-02,-1.426500154079864829e-02,-1.380601030828299686e-02,-1.329879524216355698e-02,-1.285066396278491431e-02,-1.254378933594012258e-02,-1.242370102747091497e-02,-1.249426621848117626e-02,-1.272108699853051646e-02,-1.304287691833051419e-02,-1.338699080691939033e-02,-1.368348712743470801e-02,-1.387380396546521524e-02,-1.391421522982669995e-02,-1.377737431773343353e-02,-1.345489094365989735e-02,-1.296065409305995585e-02,-1.233192301418558311e-02,-1.162560961953452293e-02,-1.090966984859161916e-02,-1.025170008939547961e-02,-9.707853989750190454e-03,-9.315109518056112134e-03,-9.088436804111785922e-03,-9.022123196966488207e-03,-9.093302119357118962e-03,-9.266412299092025365e-03,-9.498339866479760946e-03,-9.743742471641263919e-03,-9.959009277381676226e-03,-1.010326158278824528e-02,-1.013650780496689989e-02,-1.001723151798298087e-02,-9.702340385350978827e-03,-9.151095803970025686e-03,-8.332580922720843331e-03,-7.234590061897010031e-03,-5.870921038867484183e-03,-4.284117220104619039e-03,-2.542029241029860036e-03,-7.289606895150018036e-04,1.065721799280722280e-03,2.758339219055402133e-03,4.279300106483555251e-03,5.579071504150422481e-03,6.632015104820597300e-03,7.437652022016849607e-03,8.018592514630140319e-03,8.415216064463170581e-03,8.678434772193564795e-03,8.862603560743816111e-03,9.020293832924337549e-03,9.199056968844793181e-03,9.438620004277373590e-03,9.766880096739640957e-03,1.019484534366188293e-02,1.071298197518171479e-02,1.129241283415575829e-02,1.189262322067484098e-02,1.247342256921212325e-02,1.300596632319709657e-02,1.347804637979385482e-02,1.389199915070263650e-02,1.425727844103328451e-02,1.458201047336141545e-02,1.486758869325944393e-02,1.510808886703678827e-02,1.529374908287468512e-02,1.541629027331223659e-02,1.547367789736439278e-02,1.547287978000131022e-02,1.543062326697111977e-02,1.537289771688471474e-02,1.533375863563712568e-02,1.535358965071768715e-02,1.547639350347973335e-02,1.574516154484568997e-02,1.619503479409130017e-02,1.684563111922325260e-02,1.769479351153154315e-02,1.871513551053600663e-02,1.985312999232491382e-02,2.102996828323958761e-02,2.214464943594033480e-02,2.308117701716288703e-02,2.372101824856984523e-02,2.395895529908841429e-02,2.371789215300638271e-02,2.295866368131450896e-02,2.168379699522881426e-02,1.993664708403436112e-02,1.779776823430485877e-02,1.537958829867524906e-02,1.281955730899313022e-02,1.027126666897161880e-02,7.892954847665644910e-03,5.833716723548420038e-03,4.219016035969114752e-03,3.137563927633888004e-03,2.631051580282744301e-03,2.687610356396877721e-03,3.239976221829841269e-03,4.169772361409444447e-03,5.319027596056977690e-03,6.508400173334918590e-03,7.559426200606699821e-03,8.317064760731376211e-03,8.669182811773550393e-03,8.560342177225873164e-03,7.997851685760920537e-03,7.049305525406967567e-03,5.832985771483658807e-03,4.503948495882663730e-03,3.237838656751429109e-03,2.212659746247736415e-03,1.588338869347422078e-03,1.485650209216356731e-03,1.968262025525819008e-03,3.032185973719578233e-03,4.604974509125999566e-03,6.554094171313092944e-03,8.702215904482068359e-03,1.084717904982178231e-02,1.278472201143181046e-02,1.433179030544168286e-02,1.534771261180485104e-02,1.575031349831125874e-02,1.552432064707828102e-02,1.472048246775860443e-02,1.344576467185611829e-02,1.184724903703119649e-02,1.009351000361231876e-02,8.356401858894498338e-03,6.794364848494013551e-03,5.537373040186865068e-03,4.674163340374353978e-03,4.243787799288192657e-03,4.234383542244742581e-03,4.590733939373282772e-03,5.228762958980901279e-03,6.051974702494751501e-03,6.964527781689666859e-03,7.878384804144085082e-03,8.715766251289442171e-03,9.410230290176256618e-03,9.908788396864945391e-03,1.017490145400258908e-02,1.019060693032393904e-02,9.956578187942632593e-03,9.490562115331524842e-03,8.825561555236562453e-03,8.008474463836434340e-03,7.098464320886709207e-03,6.163542265012541578e-03,5.274331974922649713e-03,4.495384980308552922e-03,3.875861471412755162e-03,3.442214024685911599e-03,3.195267412899317934e-03,3.112349270742107051e-03,3.152664907247313634e-03,3.263182707233078846e-03,3.383802787100518867e-03,3.452639306921810418e-03,3.412738509560070584e-03,3.220314772310320459e-03,2.852802600050760150e-03,2.314023668890571959e-03,1.634359846699823477e-03,8.656491008760022320e-04,7.238969873116953674e-05,-6.781607152006269377e-04,-1.324615050428616268e-03,-1.817589400316757487e-03,-2.123456066867455711e-03,-2.226834417552968348e-03,-2.132980258960723557e-03,-1.869748520626541297e-03,-1.486876501285228861e-03,-1.050349585692243086e-03,-6.322261672063638274e-04,-2.991846275135247313e-04,-1.035875545498242699e-04,-7.903129502965387440e-05,-2.400404840286621342e-04,-5.841833811116197480e-04,-1.094722124222275057e-03,-1.742793566728221936e-03,-2.489485825110023323e-03,-3.288801088466282527e-03,-4.091581901470997193e-03,-4.849187939082776413e-03,-5.515789268468362233e-03,-6.049445553507802609e-03,-6.413212919166460559e-03,-6.577466004040026688e-03,-6.523386727587476321e-03,-6.246012560994637468e-03,-5.754931429126182094e-03,-5.072278276587933489e-03,-4.229847914659245166e-03,-3.267795928248277276e-03,-2.235596557940404665e-03,-1.193198782910256722e-03,-2.093301123965279334e-04,6.445564847918428594e-04,1.303599288893850586e-03,1.719268119649075728e-03,1.866782039020658005e-03,1.749042571100739747e-03,1.397648781946012313e-03,8.720026562713572215e-04,2.562602812321325418e-04,-3.475975970169282439e-04,-8.319973644657586900e-04,-1.100647672420011552e-03,-1.087159388576863046e-03,-7.711489231384616519e-04,-1.875424328626569743e-04,5.736387111359215378e-04,1.377370693230592878e-03,2.061918875379636657e-03,2.462127713674129494e-03,2.433640047210390914e-03,1.874316055593968234e-03,7.400705050193361447e-04,-9.473751073794769214e-04,-3.102944245328388521e-03,-5.590651821369956725e-03,-8.242369940758560720e-03,-1.087753141838956709e-02,-1.331981322960456432e-02,-1.541005797204471686e-02,-1.701703899648523283e-02,-1.804747154730909631e-02,-1.845485458398258768e-02,-1.824533692436769092e-02,-1.747848901143355532e-02,-1.626140488498252490e-02,-1.473609767836571265e-02,-1.306235215985691693e-02,-1.139970639298376262e-02,-9.892011158499025569e-03,-8.656412011212118521e-03,-7.776724325248419827e-03,-7.299990552401873500e-03,-7.235151587876437196e-03,-7.553985036011604329e-03,-8.195162741057292546e-03,-9.071127763413535522e-03,-1.007577460337916175e-02,-1.109120728803914165e-02,-1.199398084136734516e-02,-1.266249944395500017e-02,-1.298664297361642496e-02,-1.287935005067630118e-02,-1.228837550068087592e-02,-1.120520004642346600e-02,-9.668183457283376428e-03,-7.758623995346533575e-03,-5.590584064825403730e-03,-3.297330194999600027e-03,-1.017718352499010371e-03,1.115645763416473661e-03,2.986430059280650254e-03,4.503196368847435342e-03,5.606354784756625159e-03,6.272350309934674600e-03,6.513993751560290604e-03,6.377114172314272793e-03,5.934945002751795817e-03,5.281244264177403086e-03,4.521695070301205883e-03,3.762859294215534656e-03,3.099768333137999099e-03,2.605407071020958334e-03,2.325217405234043886e-03,2.277077043419670384e-03,2.454905873963098787e-03,2.834000147687409325e-03,3.376819027649890712e-03,4.037835326006814461e-03,4.766398393096444100e-03,5.508255341845983907e-03,6.207985459121404155e-03,6.814243258072790778e-03,7.287436848663404743e-03,7.607271466898305259e-03,7.777315101319308768e-03,7.825295484910675323e-03,7.799604143079192503e-03,7.763040360207237867e-03,7.784333986084144077e-03,7.928035383184541332e-03,8.244395956477058862e-03,8.761285974747370225e-03,9.479489108776165823e-03,1.037220350709630763e-02,1.138937012698515786e-02,1.246618996899986724e-02,1.353305287251958290e-02,1.452319805993666779e-02,1.537597039081340343e-02,1.603627884415782801e-02,1.645289574686551251e-02,1.657875373695446089e-02,1.637524054158764897e-02,1.582007201720474210e-02,1.491616934744292855e-02,1.369840643715188738e-02,1.223609586920472794e-02,1.063070528357151073e-02,9.009170415126244516e-03,7.512830644068671515e-03,6.282009120717156614e-03,5.438068574362304140e-03,5.067297239285463092e-03,5.211423055722596426e-03,5.866525700994579262e-03,6.987853349951770286e-03,8.496484642058000844e-03,1.028578167461602008e-02,1.222834613646593682e-02,1.418513776307653643e-02,1.601745869406880074e-02,1.760101720658034316e-02,1.884013526819136586e-02,1.967934256065399443e-02,2.010947254198934206e-02,2.016666768690738784e-02,1.992496303541932065e-02,1.948469773991959655e-02,1.895899001773009712e-02,1.845991492035926537e-02,1.808601699637285565e-02,1.791276704748839821e-02,1.798673947425899478e-02,1.832343997804548874e-02,1.890856574532600448e-02,1.970233948297645324e-02,2.064601244476265210e-02,2.166945122905014967e-02,2.269928787685704732e-02,2.366752609750997355e-02,2.451995112188841419e-02,2.522275877270417285e-02,2.576564706642758829e-02,2.616060733903262728e-02,2.643736983217159428e-02,2.663784865430937274e-02,2.681178632480011453e-02,2.701395011667301685e-02,2.730117418260839812e-02,2.772720135876535416e-02,2.833497503267201276e-02,2.914814415451030122e-02,3.016448254957767097e-02,3.135357439904310622e-02,3.265992640173741995e-02,3.401064869637145105e-02,3.532473218952642685e-02,3.652074297738785308e-02,3.752205703279786614e-02,3.826126154243689875e-02,3.868574262372206224e-02,3.876473464274945296e-02,3.849565421556740141e-02,3.790629715610333711e-02,3.705078805800739866e-02,3.600049194702528710e-02,3.483396606687721303e-02,3.362992070939249678e-02,3.246434724966770075e-02,3.141032033611233787e-02,3.053802981777816242e-02,2.991277962036870131e-02,2.958984584303835444e-02,2.960724853442865678e-02,2.997929041443926634e-02,3.069334810296507968e-02,3.171007618221307472e-02,3.296538185609257376e-02,3.437286856828208892e-02,3.582691719382733592e-02,3.720767911849796883e-02,3.838939045002062733e-02,3.925217701038965362e-02,3.969533219934821139e-02,3.964889110977855985e-02,3.908146981179869139e-02,3.800415821555050422e-02,3.647055954698791291e-02,3.457233680252135705e-02,3.242965796253072241e-02,3.017718748243389607e-02,2.794794550143414255e-02,2.585835643840577250e-02,2.399742155903884441e-02,2.242147416307830807e-02,2.115429777733168065e-02,2.019102180176264930e-02,1.950351467152194526e-02,1.904547459061208675e-02,1.875687997451748468e-02,1.856885805516938701e-02,1.841047368178555868e-02,1.821822286019194118e-02,1.794737166009414617e-02,1.758225475249906508e-02,1.714146919616570813e-02,1.667503976638433361e-02,1.625385715308505508e-02,1.595473631646535106e-02,1.584537094994202533e-02,1.597215654910263613e-02,1.635177236112995286e-02,1.696654648683718070e-02,1.776444115581628583e-02,1.866515980942184613e-02,1.957249744432532773e-02,2.039005573384406605e-02,2.103558874277324658e-02,2.145070676105674187e-02,2.160598763985496426e-02,2.150336981839290340e-02,2.117711731559713748e-02,2.069331659270816359e-02,2.014704982115316650e-02,1.965644235568932488e-02,1.935376954450902798e-02,1.937482107334387652e-02,1.984772704898551607e-02,2.088197342229547449e-02,2.255819748322280063e-02,2.491929084092959698e-02,2.796333814941840551e-02,3.163951513894809608e-02,3.584876837503476327e-02,4.045060981757366003e-02,4.527531473739888901e-02,5.013863722669528733e-02,5.485596105873756512e-02,5.925476799324579102e-02,6.318615577983065223e-02,6.653600587098351671e-02,6.923475809745446852e-02,7.126329094337338632e-02,7.265247871815440350e-02,7.347581080903793638e-02,7.383692531650767887e-02,7.385560302137950117e-02,7.365595770763272432e-02,7.335914563618306516e-02,7.308041546493239393e-02,7.292819955559383394e-02,7.300277991249000398e-02,7.339373238660153176e-02,7.417682550475396264e-02,7.541086798856316831e-02,7.713409504592196042e-02,7.935957924921518969e-02,8.207014322846271914e-02,8.521474089288690046e-02,8.870917437481212753e-02,9.244337929245864671e-02,9.629524895563687514e-02,1.001480300773397031e-01,1.039066578861151807e-01,1.075092848573420135e-01,1.109324762926224978e-01,1.141899788479858596e-01,1.173253590060822776e-01,1.203993749792464374e-01,1.234740271949668344e-01,1.265958455246167236e-01,1.297808070114043200e-01,1.330034437933221847e-01,1.361932346447339570e-01,1.392404641440759261e-01,1.420110771982932840e-01,1.443677559275813593e-01,1.461936337970899114e-01,1.474149150889326187e-01,1.480185177784782979e-01,1.480608355104016394e-01,1.476643026796847502e-01,1.470003618482730035e-01,1.462607361322318111e-01,1.456224693609510512e-01,1.452146506861704545e-01,1.450948710978896272e-01,1.452405184911259584e-01,1.455554834014175236e-01,1.458894348017734377e-01,1.460650974947872993e-01,1.459081336148065899e-01,1.452744004918964660e-01,1.440704117661046613e-01,1.422640726082741169e-01,1.398841134370805706e-01,1.370083435755655443e-01,1.337429497574117998e-01,1.301975155775590698e-01,1.264623647848278631e-01,1.225944499758607059e-01,1.186145314720777610e-01,1.145137124088734387e-01,1.102645549731468416e-01,1.058321682811633746e-01,1.011828618168985616e-01,9.629061023631976801e-02,9.114283269425502154e-02,8.574588731776820738e-02,8.012894714159229936e-02,7.434492630594390083e-02,6.846831723225771382e-02,6.259021880259942050e-02,5.681064130323239952e-02,5.122872202086009574e-02,4.593264555287616957e-02,4.099156591689331885e-02,3.645096420187289576e-02,3.233133220399808661e-02,2.862944604618012853e-02,2.532209429584310681e-02,2.237233101968268481e-02,1.973733402313090912e-02,1.737587915064317187e-02,1.525331172921965371e-02,1.334295333381923382e-02,1.162481531003901197e-02,1.008382253588848559e-02,8.709254784929789175e-03,7.495718217685885115e-03,6.444971329986184071e-03,5.567314511523722108e-03,4.881197608939465138e-03,4.410694906845909723e-03,4.181548047336395429e-03,4.216226200866616744e-03,4.527536109302681896e-03,5.110743102173215258e-03,5.936257887645977893e-03,6.946230611883935299e-03,8.057045634454773966e-03,9.167125137670519008e-03,1.016777966117912539e-02,1.095451583199417989e-02,1.143664126167926766e-02,1.154380626113852247e-02,1.122916364106024516e-02,1.046978229182096883e-02,9.265368632544394856e-03,7.636213259032139690e-03,5.621026279222261085e-03,3.275191635829394557e-03,6.694290648396303322e-04,-2.112596514236094250e-03,-4.980396332627290076e-03,-7.848209089017416790e-03,-1.065059081603325630e-02,-1.335764720791091792e-02,-1.598425166607264289e-02,-1.858835443580133043e-02,-2.125588252702536804e-02,-2.407276804770437650e-02,-2.708725422387761247e-02,-3.026751925780295574e-02,-3.346073631528202752e-02,-3.635970756555843147e-02,-3.848294245280199644e-02,-3.917448584487885632e-02,-3.762943455868238141e-02,-3.294728913678639931e-02,-2.420859905202342802e-02,-1.056399399964054811e-02,8.678758062123178088e-03,3.398304626650777704e-02,6.553508715433076226e-02,1.032203976514549926e-01,1.466224112592147133e-01,1.950393468178855949e-01,2.475150710495818418e-01,3.028794362368892323e-01,3.597946033295855162e-01,4.168068505901118548e-01,4.724057784097200341e-01,5.250912904014826132e-01,5.734447519243917046e-01,6.161989217801703278e-01,6.523024161969154244e-01,6.809754070996469899e-01,7.017522651031625758e-01,7.145057251003477106e-01,0.000000000000000000e+00,0.000000000000000000e+00,0.000000000000000000e+00,0.000000000000000000e+00,0.000000000000000000e+00,0.000000000000000000e+00,0.000000000000000000e+00,0.000000000000000000e+00,0.000000000000000000e+00,0.000000000000000000e+00,0.000000000000000000e+00,0.000000000000000000e+00,0.000000000000000000e+00,0.000000000000000000e+00,0.000000000000000000e+00,0.000000000000000000e+00,0.000000000000000000e+00,0.000000000000000000e+00,0.000000000000000000e+00,0.000000000000000000e+00,0.000000000000000000e+00,0.000000000000000000e+00,0.000000000000000000e+00,0.000000000000000000e+00,0.000000000000000000e+00,0.000000000000000000e+00,0.000000000000000000e+00,0.000000000000000000e+00,0.000000000000000000e+00,0.000000000000000000e+00,0.000000000000000000e+00,0.000000000000000000e+00,0.000000000000000000e+00,0.000000000000000000e+00,0.000000000000000000e+00,0.000000000000000000e+00,0.000000000000000000e+00,0.000000000000000000e+00,0.000000000000000000e+00,0.000000000000000000e+00,0.000000000000000000e+00,0.000000000000000000e+00,0.000000000000000000e+00,0.000000000000000000e+00
7.194479902218849920e-01,7.171067594557185565e-01,7.082771300576924389e-01,6.939526470827728222e-01,6.752398201465271699e-01,6.532612594122657601e-01,6.290559545204601477e-01,6.034911373691543846e-01,5.772031547976352872e-01,5.505797602292539228e-01,5.237847929281818082e-01,4.968143427654087008e-01,4.695670727245554454e-01,4.419129914837311435e-01,4.137515206744301066e-01,3.850556719178595544e-01,3.559019886185831316e-01,3.264859155196401241e-01,2.971212100575971182e-01,2.682223141384081355e-01,2.402707269401602452e-01,2.137688656939761567e-01,1.891870594436406150e-01,1.669113369631125554e-01,1.472004861117746921e-01,1.301593371074317995e-01,1.157319969612918970e-01,1.037151414292787205e-01,9.378824117665607307e-02,8.555533824933636566e-02,7.859179750281147792e-02,7.248920925053162212e-02,6.689263333496553443e-02,6.152645335854673575e-02,5.620738237948574856e-02,5.084538299430784586e-02,4.543518455951619378e-02,4.004154159032177057e-02,3.478010314439373279e-02,2.979442552515702142e-02,2.522985304248973742e-02,2.120659507952266792e-02,1.779609531831870262e-02,1.500548663458390296e-02,1.277389622475985295e-02,1.098152327322367457e-02,9.468714323294607701e-03,8.059880080789226173e-03,6.587392116618078115e-03,4.912485879562891559e-03,2.941758400254157555e-03,6.383984945633400243e-04,-1.972879985700538418e-03,-4.808414131812922994e-03,-7.736050036368664548e-03,-1.059193089079488864e-02,-1.320043132576616610e-02,-1.539371528441467983e-02,-1.702822616976085168e-02,-1.799678738112978071e-02,-1.823607192843166094e-02,-1.772974550202541244e-02,-1.650800497534055458e-02,-1.464452293789736230e-02,-1.225169716190571863e-02,-9.474694339701507026e-03,-6.484223851526045752e-03,-3.467378287368374883e-03,-6.156601400182222473e-04,1.889940518385579580e-03,3.895324266356701808e-03,5.288136529467289161e-03,6.007801704930058884e-03,6.048574541908159109e-03,5.455694904435849646e-03,4.316984304042686266e-03,2.752864452925204118e-03,9.064427918327199775e-04,-1.066381551667969045e-03,-3.007330325618043712e-03,-4.766804307105902694e-03,-6.215242287790682940e-03,-7.253793918860134381e-03,-7.822474477652201913e-03,-7.903910462433941936e-03,-7.522162949907086789e-03,-6.737813457401114862e-03,-5.640864063321262938e-03,-4.342059546475728928e-03,-2.962381523412889895e-03,-1.620600834517611300e-03,-4.197516506007859731e-04,5.652931692672922637e-04,1.295952546248538111e-03,1.771003466724631326e-03,2.020324635185863534e-03,2.094159794202593832e-03,2.051750505644245846e-03,1.951551382922887996e-03,1.843400814270113172e-03,1.762942490325418920e-03,1.729068519162358557e-03,1.744385051355622652e-03,1.797562668077128502e-03,1.866604314400329995e-03,1.922971348664985654e-03,1.936472517247338340e-03,1.879817173770137592e-03,1.731463040551301609e-03,1.476718617521844551e-03,1.108485219624436241e-03,6.286910124970398767e-04,4.979581645678536530e-05,-6.054625926488035924e-04,-1.307590049033888029e-03,-2.026542442568216116e-03,-2.737257785503747001e-03,-3.420749771620917173e-03,-4.060325154561269211e-03,-4.636223795581490524e-03,-5.122514392374994362e-03,-5.487980323882075614e-03,-5.700414883784315698e-03,-5.732537783922406378e-03,-5.568065275205492590e-03,-5.207540808168210390e-03,-4.673749420071422571e-03,-4.015705575158030199e-03,-3.309417989104106606e-03,-2.653462673993000395e-03,-2.158335847856285555e-03,-1.931073477777026873e-03,-2.059165013068531454e-03,-2.597750264148529237e-03,-3.561682129068378423e-03,-4.922260866081488995e-03,-6.608713614251401046e-03,-8.515084078497591261e-03,-1.051244439171105868e-02,-1.246488045074333958e-02,-1.424678172071562610e-02,-1.575851335679157028e-02,-1.693723274938771853e-02,-1.776044697293487420e-02,-1.824264353694426272e-02,-1.842810010895428938e-02,-1.838320858872223920e-02,-1.818961861729760654e-02,-1.793773460841666459e-02,-1.771991229133541151e-02,-1.762329476083008065e-02,-1.772251749967432982e-02,-1.807246700212191554e-02,-1.870172517402538329e-02,-1.960852443638846226e-02,-2.076145901790547171e-02,-2.210543976640342093e-02,-2.357092722609664334e-02,-2.508391877704677086e-02,-2.657536455298981429e-02,-2.798955223108643905e-02,-2.929081027767011305e-02,-3.046756591352414029e-02,-3.153312105806013038e-02,-3.252325456340054988e-02,-3.349129257301224072e-02,-3.450136933146040474e-02,-3.562045522628205785e-02,-3.690978925176933295e-02,-3.841673244214685590e-02,-4.016815587582719949e-02,-4.216589984655709500e-02,-4.438418229130380865e-02,-4.676882273597846029e-02,-4.923876051213927491e-02,-5.169086386120964882e-02,-5.400873839661095299e-02,-5.607516478069740629e-02,-5.778670881313376778e-02,-5.906867618447255580e-02,-5.988842697929262771e-02,-6.026421530538206978e-02,-6.026612140317036403e-02,-6.000723807008956356e-02,-5.962688595791208745e-02,-5.927071612624623675e-02,-5.907298510908708111e-02,-5.914430066850243778e-02,-5.956540251235691030e-02,-6.038547347917274516e-02,-6.162293535806513678e-02,-6.326756586731545340e-02,-6.528376909043037690e-02,-6.761511985627291499e-02,-7.019040443486576630e-02,-7.293148698342971636e-02,-7.576261484594222495e-02,-7.861934623615529638e-02,-8.145498484802980721e-02,-8.424393169295736616e-02,-8.698271810656588166e-02,-8.968907613546441004e-02,-9.239836035564125138e-02,-9.515684767982916792e-02,-9.801292594772138822e-02,-1.010084147110292818e-01,-1.041722273195613280e-01,-1.075173809921027845e-01,-1.110407803049512782e-01,-1.147243596883779082e-01,-1.185365611815806519e-01,-1.224341417479349048e-01,-1.263650836843335235e-01,-1.302733927191656038e-01,-1.341057860373713051e-01,-1.378193103908021411e-01,-1.413883040079365883e-01,-1.448087132802329258e-01,-1.480978676990917509e-01,-1.512891978049725195e-01,-1.544236223432659538e-01,-1.575406247808678051e-01,-1.606716043727231258e-01,-1.638368233631075088e-01,-1.670457959622027588e-01,-1.702996955676251145e-01,-1.735942585774607749e-01,-1.769223269397059983e-01,-1.802752570036474933e-01,-1.836423168343734036e-01,-1.870079046396682099e-01,-1.903477845072912011e-01,-1.936267613502824780e-01,-1.968002233570840809e-01,-1.998202107371535030e-01,-2.026441511706703336e-01,-2.052430295754399669e-01,-2.076066825036227415e-01,-2.097462564616868752e-01,-2.116955039019631224e-01,-2.135124257207325071e-01,-2.152811295887217258e-01,-2.171116185388554942e-01,-2.191342080225846534e-01,-2.214867873637051676e-01,-2.242966930077245902e-01,-2.276620603477244320e-01,-2.316376369940080782e-01,-2.362273476778561920e-01,-2.413832486953937373e-01,-2.470098218073796259e-01,-2.529729847605661219e-01,-2.591131681538673681e-01,-2.652608761674625781e-01,-2.712519365985717745e-01,-2.769393037882105224e-01,-2.821995114023896911e-01,-2.869341936065543108e-01,-2.910691583157328788e-01,-2.945539236525985816e-01,-2.973631263658633173e-01,-2.994990431121655194e-01,-3.009931830501977323e-01,-3.019051094240740030e-01,-3.023179374488381699e-01,-3.023313668530261400e-01,-3.020536538234218638e-01,-3.015932848320189152e-01,-3.010502306292148211e-01,-3.005069338704840498e-01,-3.000203643262386310e-01,-2.996170318190350401e-01,-2.992923292213438557e-01,-2.990143752020875678e-01,-2.987309317767974370e-01,-2.983770146692593106e-01,-2.978813973651934788e-01,-2.971715901780557223e-01,-2.961778746485120850e-01,-2.948371477957176801e-01,-2.930968851306478551e-01,-2.909192282471058100e-01,-2.882852953374046567e-01,-2.851996054710505546e-01,-2.816938890135733398e-01,-2.778291650249403166e-01,-2.736948333622050145e-01,-2.694035388841060641e-01,-2.650812555563102912e-01,-2.608535036434782017e-01,-2.568300471867189794e-01,-2.530911848104822615e-01,-2.496785936663090122e-01,-2.465924005843938005e-01,-2.437941569013189202e-01,-2.412139772063889853e-01,-2.387600048990860535e-01,-2.363288059774417971e-01,-2.338154491613351482e-01,-2.311223221676450279e-01,-2.281665783716221030e-01,-2.248868447137155890e-01,-2.212495094427945341e-01,-2.172535624490534167e-01,-2.129320051295505445e-01,-2.083487669332380332e-01,-2.035922541763025562e-01,-1.987677542683234655e-01,-1.939896986148090530e-01,-1.893727124969987741e-01,-1.850200690710598062e-01,-1.810106439928767241e-01,-1.773884939094298729e-01,-1.741590594009603254e-01,-1.712923216495118584e-01,-1.687298308249957912e-01,-1.663923452361359967e-01,-1.641868637808746312e-01,-1.620135672986663389e-01,-1.597735969051155558e-01,-1.573781859986672083e-01,-1.547587950516791933e-01,-1.518765294486097150e-01,-1.487279665749434709e-01,-1.453448220130088842e-01,-1.417868555675183273e-01,-1.381301459321649383e-01,-1.344548687904842665e-01,-1.308362790532497377e-01,-1.273397711407583954e-01,-1.240184039401001082e-01,-1.209112725349634904e-01,-1.180425697465945639e-01,-1.154219047250050478e-01,-1.130458669401711164e-01,-1.109001198346666744e-01,-1.089614427298161436e-01,-1.071996392659580744e-01,-1.055794587850159977e-01,-1.040629281532700207e-01,-1.026126387181504063e-01,-1.011955910732271202e-01,-9.978560319088461417e-02,-9.836230230901613081e-02,-9.690708579259642297e-02,-9.539895138522273832e-02,-9.381345767735298213e-02,-9.212593925187054222e-02,-9.031696487772575277e-02,-8.837637390236828538e-02,-8.630335832656924056e-02,-8.410282265243029798e-02,-8.178050243651066586e-02,-7.933958631529498817e-02,-7.677989782925538631e-02,-7.409874949400385713e-02,-7.129221172852143185e-02,-6.835669901908049406e-02,-6.529183042894427802e-02,-6.210531348861242362e-02,-5.881933248550391680e-02,-5.547645233924447528e-02,-5.214230056145200548e-02,-4.890301497607923292e-02,-4.585764941236204761e-02,-4.310803070545728838e-02,-4.074910472281249169e-02,-3.886144821753677314e-02,-3.750588242419218565e-02,-3.671915921485981865e-02,-3.650988076800185111e-02,-3.685508797723211633e-02,-3.769914529855306756e-02,-3.895614986127168833e-02,-4.051519315950039002e-02,-4.224627257476314818e-02,-4.400534769546365216e-02,-4.563949011410280837e-02,-4.699441622247023387e-02,-4.792541467201549832e-02,-4.831069217777711478e-02,-4.806526497058894593e-02,-4.715308111661616064e-02,-4.559470237831388800e-02,-4.346858192830899137e-02,-4.090576307575232579e-02,-3.807931522858453571e-02,-3.518992252448518293e-02,-3.244823165331007370e-02,-3.005444931532565145e-02,-2.817683795522664056e-02,-2.693217464927254515e-02,-2.637182437100760862e-02,-2.647640947353704921e-02,-2.716016521338608658e-02,-2.828352006038900579e-02,-2.967045318571924148e-02,-3.112690930158693026e-02,-3.245788733121663522e-02,-3.348259414907950315e-02,-3.404808880581534913e-02,-3.404147469954790090e-02,-3.339949102143389970e-02,-3.211390194246807606e-02,-3.023186671341253698e-02,-2.785138510662932276e-02,-2.511222928413087141e-02,-2.218279501043705568e-02,-1.924355230492418717e-02,-1.646850627740875997e-02,-1.400696468477489499e-02,-1.196853147887460590e-02,-1.041448439277204568e-02,-9.357791868971022595e-03,-8.771202512206623114e-03,-8.599389230071379300e-03,-8.769851098181779062e-03,-9.199573581855675572e-03,-9.798462359478204986e-03,-1.047273617241321203e-02,-1.113042876264591120e-02,-1.168859351460198835e-02,-1.207978865807858397e-02,-1.225530412529560187e-02,-1.218478302156125910e-02,-1.185459435101108606e-02,-1.126780419559865812e-02,-1.044630464131568286e-02,-9.432635512854288529e-03,-8.287936358783058038e-03,-7.084284260545892740e-03,-5.892958228795276351e-03,-4.772646221095427736e-03,-3.761895962330564971e-03,-2.878010302394829953e-03,-2.121188853833705108e-03,-1.480445346109620936e-03,-9.385519656106418264e-04,-4.758080256748691136e-04,-7.389410735571407506e-05,2.797338734098338232e-04,5.882466691813424513e-04,8.445701587684798081e-04,1.033766233761151043e-03,1.137571744433591575e-03,1.139955932663633178e-03,1.033063940114490892e-03,8.224239497696589395e-04,5.296969691246009547e-04,1.919847255668426071e-04,-1.417228923517724131e-04,-4.154574442682003972e-04,-5.713734878434932694e-04,-5.548767196315038466e-04,-3.202006825196017392e-04,1.635479011409682402e-04,9.069138883917264712e-04,1.896918425460907866e-03,3.097365488393627984e-03,4.452262889896479656e-03,5.890557357415275586e-03,7.330123921689240575e-03,8.680204108409418987e-03,9.843475965902931391e-03,1.072011677264922934e-02,1.121546490890259345e-02,1.125071261739900123e-02,1.077426068195729524e-02,9.770921972844797895e-03,8.266735096226218715e-03,6.328466113906318011e-03,4.058632728908120879e-03,1.588082261093321434e-03,-9.320923287034028545e-04,-3.338971026422176552e-03,-5.467491082343798117e-03,-7.162040428000335419e-03,-8.289169232573650320e-03,-8.749762825298851299e-03,-8.489345446138749779e-03,-7.505637478899058329e-03,-5.852318158535874115e-03,-3.637556487407718475e-03,-1.016086532912414747e-03,1.824737945709485002e-03,4.681986116000370728e-03,7.353509698246203305e-03,9.651406967463258338e-03,1.141231202437796750e-02,1.250521801517384506e-02,1.283810287875181144e-02,1.236456869393165632e-02,1.109016274336752095e-02,9.076090492426783576e-03,6.437991403689301284e-03,3.339190041643191192e-03,-2.102356207103243621e-05,-3.423496923567042553e-03,-6.648655029207630948e-03,-9.497131800471941138e-03,-1.180877534613437516e-02,-1.347714585700753379e-02,-1.445692920852265258e-02,-1.476283893489369406e-02,-1.446082895598257978e-02,-1.365483358866375306e-02,-1.247318708882938498e-02,-1.105737532598743619e-02,-9.552898813890937924e-03,-8.100396750372806584e-03,-6.826007187375429663e-03,-5.831829907753375251e-03,-5.188377135650418942e-03,-4.930518421167563552e-03,-5.057476979497496118e-03,-5.536717400146904354e-03,-6.311007542791038233e-03,-7.307208292825257898e-03,-8.444820811244839118e-03,-9.642836499928340160e-03,-1.082486048582640900e-02,-1.192342515299107085e-02,-1.288399293497869726e-02,-1.366804903132233170e-02,-1.425418904332582948e-02,-1.463689640828011972e-02,-1.482408392983425999e-02,-1.483487544984232569e-02,-1.469807198680228230e-02,-1.445039911692879223e-02,-1.413327968714111170e-02,-1.378792267627762178e-02,-1.344994110450180476e-02,-1.314507899761473489e-02,-1.288679583106709832e-02,-1.267539198554597929e-02,-1.249816478669114710e-02,-1.233097491779661103e-02,-1.214227611329867645e-02,-1.190004760053954905e-02,-1.158070510554848852e-02,-1.117788324591710916e-02,-1.070857406827825827e-02,-1.021471378009619450e-02,-9.759638996083060819e-03,-9.420421260193103177e-03,-9.278046853700391491e-03,-9.406851577665917633e-03,-9.863527184811069631e-03,-1.067623066140633084e-02,-1.183567843789851137e-02,-1.329089252163038852e-02,-1.495149653944827413e-02,-1.669648749293841869e-02,-1.838742755470992168e-02,-1.988312388183579096e-02,-2.105344344380744720e-02,-2.179136858352430720e-02,-2.202334493853466343e-02,-2.171763074155375062e-02,-2.088962417039354202e-02,-1.960288202389481524e-02,-1.796462438523430127e-02,-1.611523240137840637e-02,-1.421305080702826677e-02,-1.241773540047712981e-02,-1.087568851765864132e-02,-9.709534842056052190e-03,-9.011550357435026137e-03,-8.839621637216611705e-03,-9.214010366796419535e-03,-1.011429715722999417e-02,-1.147788056763186793e-02,-1.320240119292602314e-02,-1.515340114091140618e-02,-1.717652086482215554e-02,-1.911214435145781182e-02,-2.081021214611231476e-02,-2.214360915103601862e-02,-2.301928992522418727e-02,-2.338645647563426799e-02,-2.324072357260999200e-02,-2.262295799351475914e-02,-2.161212712414163628e-02,-2.031322413273175392e-02,-1.884306668366232326e-02,-1.731697245992115317e-02,-1.583793058070497375e-02,-1.448852190881000021e-02,-1.332565217226376435e-02,-1.237844322878898194e-02,-1.164946233045789474e-02,-1.111911777168376504e-02,-1.075257887678583366e-02,-1.050750832369093044e-02,-1.033995459838672921e-02,-1.020658898844987485e-02,-1.006410138668298836e-02,-9.868805197474775706e-03,-9.579391844083722657e-03,-9.163662062865471011e-03,-8.607576826896721697e-03,-7.923137013792238420e-03,-7.151195951742529353e-03,-6.357153308216165200e-03,-5.620781174468398970e-03,-5.023895564815731955e-03,-4.639669693774065018e-03,-4.525368248652396515e-03,-4.717953518833860847e-03,-5.231297697420654418e-03,-6.054718483708383843e-03,-7.153661830777775094e-03,-8.473326509194792008e-03,-9.944756767363858996e-03,-1.149142554872540495e-02,-1.303430500923865275e-02,-1.449533563526404778e-02,-1.580106600022024993e-02,-1.688801597495337078e-02,-1.770950930694129705e-02,-1.824214695754765303e-02,-1.848966092006790532e-02,-1.848253598846077289e-02,-1.827313718098116935e-02,-1.792761373251057500e-02,-1.751702336851058278e-02,-1.711009838900902358e-02,-1.676835835736146738e-02,-1.654229662020994737e-02,-1.646736010478081630e-02,-1.656026415808539015e-02,-1.681737297561531480e-02,-1.721594796060768595e-02,-1.771727223715367783e-02,-1.827013064392857267e-02,-1.881424054621196398e-02,-1.928455778542243620e-02,-1.961750131580987377e-02,-1.975884784013490561e-02,-1.967155101789828942e-02,-1.934141579991977000e-02,-1.877922483674079532e-02,-1.801869823904430137e-02,-1.711061462748875855e-02,-1.611465709994682263e-02,-1.509126779949549954e-02,-1.409505938106144288e-02,-1.316960643171577981e-02,-1.234254060288013377e-02,-1.162073590357943879e-02,-1.098697778470059463e-02,-1.040030017607970758e-02,-9.801553614391739916e-03,-9.124223110909936499e-03,-8.308556151903751658e-03,-7.315162055449281504e-03,-6.133909761528466044e-03,-4.786140257147314218e-03,-3.321069652809821669e-03,-1.808360972329399246e-03,-3.284366046454669798e-04,1.038032702509437489e-03,2.219643670315680443e-03,3.161189340455803319e-03,3.827362126585764392e-03,4.203411660532896388e-03,4.293461536562973892e-03,4.117616004577989187e-03,3.708917739923980970e-03,3.110512617274349863e-03,2.372798493015617662e-03,1.550395546882559622e-03,6.992028802309101926e-04,-1.257670861970441487e-04,-8.710576173404864075e-04,-1.483970627853048018e-03,-1.911491811602243282e-03,-2.100854365619385985e-03,-2.003522256274560369e-03,-1.583153701590448185e-03,-8.258547089932532104e-04,2.510486563975831238e-04,1.595520881695617352e-03,3.123821666653106999e-03,4.727975849953358276e-03,6.284646273099064699e-03,7.663974226409790702e-03,8.739084907219219281e-03,9.397673855775622725e-03,9.555746271120641941e-03,9.170862092609963212e-03,8.250775217460292951e-03,6.854969404919719969e-03,5.089457246183952920e-03,3.096794392818619148e-03,1.043403860547500051e-03,-8.941386642321955559e-04,-2.542809106789627096e-03,-3.746386970915775282e-03,-4.378057055622854715e-03,-4.351399190482520100e-03,-3.627512913672728458e-03,-2.216199325631256194e-03,-1.715116790662540522e-04,2.415447057073995089e-03,5.423346609934068425e-03,8.706202129300288917e-03,1.209937795177828609e-02,1.542841003185138095e-02,1.852191541768443556e-02,2.122790469185995357e-02,2.343078226603286310e-02,2.506522167952087918e-02,2.612357262969557462e-02,2.665509987771803521e-02,2.675755186081102757e-02,2.656338007499665574e-02,2.622317002830067481e-02,2.588769023124485105e-02,2.568939263877242224e-02,2.572552495166335537e-02,2.604678667414987020e-02,2.665497024529440637e-02,2.750965526125295768e-02,2.854014727347859229e-02,2.965769199341271659e-02,3.076537497363846310e-02,3.176632843924196564e-02,3.257187428525908784e-02,3.311011707775054352e-02,3.333408108371115064e-02,3.322774975662094732e-02,3.280874292319783253e-02,3.212751983985462356e-02,3.126337184583386636e-02,3.031677467003087920e-02,2.939771484113657893e-02,2.861105758387901335e-02,2.804150569735790882e-02,2.774129545619562209e-02,2.772351506419242634e-02,2.796248607979365600e-02,2.840018556205225683e-02,2.895594048320548203e-02,2.953676153215965480e-02,3.004681038467699530e-02,3.039550877400031687e-02,3.050443608972563947e-02,3.031345453013062699e-02,2.978630844013013812e-02,2.891504194704334549e-02,2.772179037205268690e-02,2.625701070922263972e-02,2.459446034551624610e-02,2.282398283653408119e-02,2.104331647316593987e-02,1.934999253568709179e-02,1.783389160868906892e-02,1.657024796530627911e-02,1.561259582920425382e-02,1.498628972716309002e-02,1.468489273649736977e-02,1.467140921340011513e-02,1.488389341558292792e-02,1.524314874705604353e-02,1.566050604467461582e-02,1.604488112981826073e-02,1.630920604388230027e-02,1.637668984542937911e-02,1.618715904907385914e-02,1.570298931627431629e-02,1.491355853778977836e-02,1.383730264089271488e-02,1.252098021292717168e-02,1.103619617427401174e-02,9.473524839755926782e-03,7.934672707283730100e-03,6.523126800510051226e-03,5.333706537422428298e-03,4.441482092387561212e-03,3.891234642214903144e-03,3.689926694184695027e-03,3.804953841880521267e-03,4.169380599340843756e-03,4.693243331630768574e-03,5.278826754656045471e-03,5.837268488481892580e-03,6.303145567686052261e-03,6.643387201260122880e-03,6.857698042940322050e-03,6.969656957976425905e-03,7.010687166592733353e-03,7.002350316829299842e-03,6.943849348340666409e-03,6.809671927285312551e-03,6.557411345093030509e-03,6.140919118230927544e-03,5.522537103440233047e-03,4.680408162610845413e-03,3.610432361508619271e-03,2.325522604340629195e-03,8.556905506312835041e-04,-7.498094106199941055e-04,-2.420357855279015730e-03,-4.065143590814114874e-03,-5.579479516217207904e-03,-6.855728211394910426e-03,-7.796499011565982684e-03,-8.326770648911576214e-03,-8.401633183606276381e-03,-8.008411185998673062e-03,-7.164927033281625474e-03,-5.916455779327270403e-03,-4.331911085644424633e-03,-2.497719754526418149e-03,-5.082076677168992362e-04,1.546145816189577801e-03,3.589220055233412199e-03,5.565591538503539444e-03,7.441724678652656029e-03,9.202834038447370302e-03,1.084717158783967891e-02,1.237943265844770879e-02,1.380427030471111788e-02,1.512054075106249000e-02,1.631714066223971180e-02,1.737143394149811768e-02,1.825105888385724837e-02,1.891937160154607417e-02,1.934354942404313549e-02,1.950300567916056493e-02,1.939574539639091558e-02,1.904160174256070565e-02,1.848232702133257785e-02,1.777881163879674667e-02,1.700609557285448492e-02,1.624715796999751799e-02,1.558593453544834806e-02,1.509928838015372338e-02,1.484813998184585267e-02,1.486929438345818005e-02,1.517005525913500685e-02,1.572705985544778015e-02,1.648965354987139489e-02,1.738695981661700710e-02,1.833693528464313410e-02,1.925583951592823098e-02,2.006760966811454300e-02,2.071318433232724812e-02,2.115886144154540544e-02,2.140146574601735005e-02,2.146844719205912716e-02,2.141305248723758894e-02,2.130646204867608917e-02,2.122894264115668048e-02,2.126101756794420913e-02,2.147450016966095596e-02,2.192291594277823857e-02,2.263174927953013824e-02,2.359050703871398008e-02,2.474931871132753786e-02,2.602189759462667645e-02,2.729504158714770451e-02,2.844326399338729591e-02,2.934574913939967319e-02,2.990247933055267815e-02,3.004734537991231302e-02,2.975676442779728176e-02,2.905224280600099060e-02,2.799607141723839399e-02,2.668132953865438861e-02,2.521871871618123692e-02,2.372256534555684457e-02,2.229778259491107736e-02,2.102944608794607775e-02,1.997648012953394392e-02,1.917038739097260552e-02,1.861894989221839908e-02,1.831338216131500954e-02,1.823607120044040686e-02,1.836604206963352373e-02,1.868113940371274664e-02,1.915801944309144383e-02,1.977124100899353351e-02,2.049148379665110750e-02,2.128291623042107006e-02,2.210145548455969000e-02,2.289637773746346083e-02,2.361606416838650524e-02,2.421622279101407621e-02,2.466741875567377354e-02,2.495880945543265880e-02,2.509668114267373656e-02,2.509895033965317546e-02,2.498873308315992595e-02,2.479013072185630440e-02,2.452760211273773139e-02,2.422804172965380143e-02,2.392318054313294709e-02,2.364971700713395381e-02,2.344575451065280397e-02,2.334401215988804804e-02,2.336378020887079979e-02,2.350391329160346141e-02,2.373837505719843949e-02,2.401514717136319504e-02,2.425943757868629855e-02,2.438199864189315516e-02,2.429210572277793606e-02,2.391316421914866860e-02,2.319778621208812980e-02,2.213883289208050040e-02,2.077399448223857248e-02,1.918346707518138808e-02,1.748157461697044321e-02,1.580345560118512696e-02,1.428798713294600516e-02,1.305843542154335075e-02,1.220323600905564958e-02,1.176076384494779796e-02,1.171270455146557719e-02,1.198903082069057227e-02,1.248358958331943248e-02,1.307525457334384605e-02,1.364815693084378730e-02,1.410611172480732978e-02,1.437943497899426236e-02,1.442524381847605335e-02,1.422418716233681685e-02,1.377692300457912522e-02,1.310239826674501618e-02,1.223788518997746821e-02,1.123925694001974736e-02,1.017985464897166840e-02,9.147133382360127934e-03,8.237166792354620043e-03,7.547203056006601858e-03,7.166173135439192488e-03,7.163411721268809172e-03,7.576888732877824773e-03,8.403199977734369247e-03,9.591766593848487579e-03,1.104498084414484889e-02,1.262492781222038576e-02,1.416641275930041396e-02,1.549546820296866627e-02,1.645171569520257823e-02,1.691128858120918496e-02,1.680559388843139504e-02,1.613183693027183882e-02,1.495351156001695561e-02,1.339117957533032116e-02,1.160545205548550382e-02,9.775606158918181618e-03,8.078295391920752022e-03,6.670396128684963170e-03,5.678205849514433162e-03,5.193219932925994056e-03,5.273429639693228560e-03,5.948205025861168921e-03,7.224098649626191360e-03,9.088786526565412541e-03,1.151135307210408333e-02,1.443919060835519713e-02,1.779414657490728177e-02,2.147163498997757200e-02,2.534509196459455369e-02,2.927546017809697088e-02,3.312346647591856569e-02,3.676202401631979005e-02,4.008663343073760876e-02,4.302272015257665311e-02,4.552991919248067232e-02,4.760375657326593873e-02,4.927499473010103076e-02,5.060672566220041080e-02,5.168924796331152149e-02,5.263259471532732298e-02,5.355664540728109074e-02,5.457971140125203457e-02,5.580786740644869820e-02,5.732748539393460463e-02,5.920169765910157644e-02,6.146929832781930503e-02,6.414384427268710054e-02,6.721190366289066243e-02,7.063129068150432455e-02,7.433113119173184735e-02,7.821538303241493129e-02,8.217070379685480208e-02,8.607855019228544124e-02,8.982992060118927258e-02,9.333985718947783450e-02,9.655866791560543949e-02,9.947776992420746811e-02,1.021294261681969101e-01,1.045809859629752148e-01,1.069250177921245992e-01,1.092665389446060564e-01,1.117080714612293801e-01,1.143337147622997402e-01,1.171947185038015454e-01,1.202995654080494109e-01,1.236106379564150676e-01,1.270480725260557942e-01,1.304999884529492171e-01,1.338371394328281561e-01,1.369299581647467345e-01,1.396668436416355352e-01,1.419725352271004326e-01,1.438232597360006304e-01,1.452530018463638606e-01,1.463464104004113531e-01,1.472188761537195634e-01,1.479893415027410120e-01,1.487530767307082280e-01,1.495602249461664701e-01,1.504034769059694743e-01,1.512160895876961120e-01,1.518798593145980480e-01,1.522415707721562761e-01,1.521356459958616569e-01,1.514099586944925302e-01,1.499509974337673301e-01,1.477039516761289029e-01,1.446835340373629486e-01,1.409729769680179157e-01,1.367111949018151307e-01,1.320707878619470366e-01,1.272318789375576353e-01,1.223579498377874442e-01,1.175788488711785457e-01,1.129829861880274067e-01,1.086172951194716157e-01,1.044922998784760665e-01,1.005905396992517187e-01,9.687689942219364359e-02,9.330814687499132398e-02,8.983892181806814314e-02,8.642407202699928237e-02,8.301963872369270969e-02,7.958405706497739818e-02,7.607894649448397606e-02,7.246852321541025210e-02,6.871845892804061273e-02,6.479664885045513523e-02,6.067763302317342317e-02,5.634950819359418883e-02,5.182010877796174725e-02,4.712016029028153613e-02,4.230327961148967059e-02,3.744363061610898880e-02,3.263196298799503348e-02,2.797094176168445773e-02,2.357088758857255398e-02,1.954620824755741795e-02,1.601117195693402967e-02,1.307320000539509593e-02,1.082341486365449162e-02,9.326066727944934409e-03,8.609194528280794678e-03,8.658837181775815711e-03,9.418525256122007791e-03,1.079430446319119136e-02,1.266392979844002328e-02,1.488840951276981101e-02,1.732456322926885506e-02,1.983740570843842838e-02,2.231067143239526609e-02,2.465355980786144291e-02,2.680251207782985076e-02,2.871825036665063766e-02,3.037945664455023523e-02,3.177491528721495401e-02,3.289629938042027552e-02,3.373389858274582209e-02,3.427635357186600146e-02,3.451341047105351001e-02,3.443958131103221770e-02,3.405687572631906773e-02,3.337584602211803031e-02,3.241512471167461856e-02,3.119959966069974985e-02,2.975664160717950840e-02,2.810951886342081402e-02,2.626807531912515176e-02,2.421866783018713012e-02,2.191723112192899350e-02,1.929008415081496022e-02,1.624595203556357045e-02,1.269962043452429155e-02,8.604079963812481802e-03,3.985980805670283171e-03,-1.020658285275583780e-03,-6.146480974071612605e-03,-1.096816031950438412e-02,-1.490325261434081484e-02,-1.722328495597143933e-02,-1.708902836665647518e-02,-1.360785857694729768e-02,-5.906006772015756114e-03,6.797063529489690697e-03,2.512438473862213875e-02,4.949396393319738241e-02,8.008848260302650623e-02,1.168389326770143122e-01,1.594184615169081387e-01,2.072446075059822534e-01,2.594899203464958171e-01,3.151012016109542846e-01,3.728270501050627295e-01,4.312539157158294945e-01,4.888531783208300840e-01,5.440435708433941642e-01,5.952711194704514153e-01,6.411022665466431514e-01,6.803183801684614673e-01,7.119961127581482252e-01,7.355607026579134011e-01,7.508065372586286701e-01,0.000000000000000000e+00,0.000000000000000000e+00,0.000000000000000000e+00,0.000000000000000000e+00,0.000000000000000000e+00,0.000000000000000000e+00,0.000000000000000000e+00,0.000000000000000000e+00,0.000000000000000000e+00,0.000000000000000000e+00,0.000000000000000000e+00,0.000000000000000000e+00,0.000000000000000000e+00,0.000000000000000000e+00,0.000000000000000000e+00,0.000000000000000000e+00,0.000000000000000000e+00,0.000000000000000000e+00,0.000000000000000000e+00,0.000000000000000000e+00,0.000000000000000000e+00,0.000000000000000000e+00,0.000000000000000000e+00,0.000000000000000000e+00
7.578861810556107859e-01,7.572725079594336828e-01,7.496996377162367109e-01,7.360885127068272915e-01,7.174621258347779751e-01,6.948558397426546351e-01,6.692324730964674950e-01,6.414162727690713162e-01,6.120583986528269627e-01,5.816388061672878029e-01,5.504997578133011826e-01,5.188978720963380864e-01,4.870570055423191214e-01,4.552067000026760457e-01,4.236003180805507640e-01,3.925167799362243026e-01,3.622536440193367957e-01,3.331172873445776839e-01,3.054120056777060443e-01,2.794270155811863221e-01,2.554197586023542743e-01,2.335950558027167501e-01,2.140817872264908772e-01,1.969116447881835708e-01,1.820065975443493633e-01,1.691806237531072177e-01,1.581571175467314794e-01,1.485991429486195059e-01,1.401476260333371637e-01,1.324617878476886390e-01,1.252551388242106323e-01,1.183203464379147807e-01,1.115390998215608637e-01,1.048777087341704606e-01,9.837269526543949982e-02,9.211121126155170924e-02,8.620923593558599274e-02,8.078858156532688073e-02,7.595384502243113234e-02,7.177225869798863067e-02,6.826066174189596159e-02,6.538272800932128093e-02,6.305651249359023325e-02,6.116928742475798153e-02,5.959512561403115111e-02,5.821090812734727032e-02,5.690785997140909019e-02,5.559800261715770048e-02,5.421729979404319583e-02,5.272790334729742651e-02,5.111988714896455871e-02,4.941065794085455071e-02,4.764066636088116341e-02,4.586618882568450906e-02,4.415132051665474067e-02,4.256118097620917307e-02,4.115702870864757640e-02,3.999229761359975738e-02,3.910804743630012098e-02,3.852766053262242363e-02,3.825240682210114679e-02,3.825974043686135306e-02,3.850457814564937215e-02,3.892212795867976832e-02,3.943092413782602751e-02,3.993636828408268086e-02,4.033641344851654487e-02,4.053056614910587746e-02,4.043139357395256206e-02,3.997585011477244182e-02,3.913343300970072852e-02,3.790956668694889231e-02,3.634442797031950390e-02,3.450839239824574772e-02,3.249542344720363768e-02,3.041539051055191026e-02,2.838545045609993517e-02,2.651991167165200156e-02,2.491855832130551035e-02,2.365519673873128434e-02,2.276960007499760283e-02,2.226536443897363451e-02,2.211352785381371852e-02,2.225933449954694068e-02,2.262929870258216514e-02,2.313746355723063017e-02,2.369150817892928806e-02,2.419961464504244084e-02,2.457804418739348296e-02,2.475866956560672516e-02,2.469560588891379221e-02,2.436975966760961815e-02,2.379008161348542330e-02,2.299158477715006546e-02,2.203165592231537753e-02,2.098593770573228823e-02,1.994329545392397804e-02,1.899808876179658740e-02,1.823868345657430473e-02,1.773364749789840822e-02,1.751952949372239873e-02,1.759442790733709711e-02,1.791926520409428333e-02,1.842545625877627449e-02,1.902563733606914276e-02,1.962418000965872669e-02,2.012588182728033623e-02,2.044313840907511365e-02,2.050255500360152403e-02,2.025123352285257070e-02,1.966228043544621454e-02,1.873904022640981992e-02,1.751731158262749555e-02,1.606431489878653099e-02,1.447351219475614438e-02,1.285557558605516376e-02,1.132690556804662879e-02,9.997530074856979254e-03,8.959825809419379866e-03,8.278695444193941155e-03,7.983809829797943597e-03,8.065572085095460211e-03,8.476656552615816770e-03,9.138936923144038924e-03,9.953089631359842912e-03,1.080768469252046775e-02,1.158645848308163459e-02,1.217516311549324617e-02,1.247080534464688716e-02,1.239451119822615119e-02,1.190548781583654868e-02,1.101118495752926793e-02,9.769990480616714060e-03,8.285878875730047499e-03,6.696563964858417116e-03,5.156995974233264529e-03,3.819499043176497171e-03,2.812177577575021136e-03,2.218923365553337849e-03,2.065812914609258758e-03,2.317950342707653967e-03,2.887688733593603198e-03,3.651300381437134167e-03,4.468622285158724110e-03,5.200232444371209045e-03,5.719393936974331155e-03,5.919686146116843843e-03,5.721154740323410211e-03,5.076771666805660055e-03,3.978401209959959474e-03,2.459437178395867604e-03,5.912033671765590118e-04,-1.527714444879130825e-03,-3.786976294689241383e-03,-6.080412269258376329e-03,-8.318085793270740130e-03,-1.043265639922744299e-02,-1.238099641429819819e-02,-1.414317186166894925e-02,-1.572024146495507382e-02,-1.713108660183924534e-02,-1.840794984023903097e-02,-1.959084963389565864e-02,-2.072182466278168003e-02,-2.184033042073296738e-02,-2.298080827456373473e-02,-2.417247039671137701e-02,-2.544020967389152774e-02,-2.680507931958184265e-02,-2.828342898313457310e-02,-2.988514591167096279e-02,-3.161228634486738798e-02,-3.345878557782162172e-02,-3.541057817451299244e-02,-3.744486572067266816e-02,-3.952821378822644199e-02,-4.161493835625314913e-02,-4.364830605922102175e-02,-4.556633720499985579e-02,-4.731161600714746396e-02,-4.884207414194750851e-02,-5.013917856130751388e-02,-5.121146421332091470e-02,-5.209341134698045050e-02,-5.284122098144484331e-02,-5.352767379102234963e-02,-5.423761473169083636e-02,-5.506389753437254675e-02,-5.610198195750449451e-02,-5.744126395047681466e-02,-5.915299829979205753e-02,-6.127713955675963969e-02,-6.381199864022361889e-02,-6.671018591172475642e-02,-6.988207671913616859e-02,-7.320581128018771588e-02,-7.654190863726326177e-02,-7.975053289013854518e-02,-8.270972988958785743e-02,-8.533286196350074737e-02,-8.758230264384608832e-02,-8.947550543476390228e-02,-9.108095296020692067e-02,-9.250480568405834714e-02,-9.387191613463337359e-02,-9.530579592466306704e-02,-9.691150914264139160e-02,-9.876431744014822767e-02,-1.009052935853560901e-01,-1.033429506848826951e-01,-1.060584845589817304e-01,-1.090125534585739409e-01,-1.121525008154732606e-01,-1.154191293355113501e-01,-1.187519686836572413e-01,-1.220925235783160007e-01,-1.253860928346445802e-01,-1.285833347231894186e-01,-1.316423497281602462e-01,-1.345311912647381147e-01,-1.372301658208228137e-01,-1.397334057987432154e-01,-1.420496061859705117e-01,-1.442019769108527083e-01,-1.462275958321976599e-01,-1.481765469527218937e-01,-1.501108609760364310e-01,-1.521024746832518870e-01,-1.542292628381326525e-01,-1.565689651568245855e-01,-1.591917182875215442e-01,-1.621522099259701255e-01,-1.654823967085405911e-01,-1.691856335187741089e-01,-1.732328167913405326e-01,-1.775610260588799394e-01,-1.820757251854830672e-01,-1.866581642970765453e-01,-1.911788434716075458e-01,-1.955157304706384158e-01,-1.995736675643395575e-01,-2.033003621789745419e-01,-2.066951034220537720e-01,-2.098083955162899084e-01,-2.127329600058635584e-01,-2.155884149921176718e-01,-2.185030671562896154e-01,-2.215960565020760054e-01,-2.249618294185732059e-01,-2.286581131218252405e-01,-2.326988226777428337e-01,-2.370532695529523892e-01,-2.416515949738008151e-01,-2.463945327792819717e-01,-2.511651320364270967e-01,-2.558411529827666064e-01,-2.603080474812594636e-01,-2.644723949722211365e-01,-2.682742637171571798e-01,-2.716953045799809230e-01,-2.747592713692638688e-01,-2.775238177923717853e-01,-2.800652793788278583e-01,-2.824599301022344688e-01,-2.847659842596158564e-01,-2.870107541467384338e-01,-2.891859003196455280e-01,-2.912504554028222947e-01,-2.931386130039000948e-01,-2.947693497641721838e-01,-2.960568125341409562e-01,-2.969210885601656913e-01,-2.972976647242393522e-01,-2.971431739293872165e-01,-2.964368245890903197e-01,-2.951794030624517728e-01,-2.933921400345261277e-01,-2.911160057412519597e-01,-2.884104922390163805e-01,-2.853508847417223770e-01,-2.820234794366631714e-01,-2.785187109242304171e-01,-2.749231200406642150e-01,-2.713118649922880432e-01,-2.677432226300211493e-01,-2.642558269737544374e-01,-2.608690600098447776e-01,-2.575866990487684638e-01,-2.544029601520341743e-01,-2.513088339258445769e-01,-2.482962553515782045e-01,-2.453589262647999369e-01,-2.424908449076037809e-01,-2.396846688929569202e-01,-2.369307965268302452e-01,-2.342163823322657434e-01,-2.315236492926842360e-01,-2.288281441637984581e-01,-2.260980100085412392e-01,-2.232946028807756278e-01,-2.203741254991125609e-01,-2.172902338257443333e-01,-2.139980429292325237e-01,-2.104595626541180264e-01,-2.066496886396066157e-01,-2.025614551266621266e-01,-1.982095400028441035e-01,-1.936314826458389315e-01,-1.888861952659962873e-01,-1.840493447588429921e-01,-1.792057648384179080e-01,-1.744399971934985638e-01,-1.698263914728746216e-01,-1.654199596698734676e-01,-1.612493022734447778e-01,-1.573134731822231069e-01,-1.535845609584474136e-01,-1.500163232783092437e-01,-1.465570347011516394e-01,-1.431629667368745362e-01,-1.398084629910132382e-01,-1.364898887597340016e-01,-1.332234056928142951e-01,-1.300387860083940250e-01,-1.269718485335470382e-01,-1.240571338445578820e-01,-1.213216551754175421e-01,-1.187804436906606670e-01,-1.164346911181968897e-01,-1.142729421895417180e-01,-1.122746919163980783e-01,-1.104148069149887834e-01,-1.086675392838229587e-01,-1.070096573047871341e-01,-1.054219969933026940e-01,-1.038884703318193325e-01,-1.023927449254122546e-01,-1.009146589975340874e-01,-9.942908229120973884e-02,-9.790869782061703552e-02,-9.632993534874802199e-02,-9.467960497598042202e-02,-9.295955904371069889e-02,-9.118772787026159510e-02,-8.939547893729840600e-02,-8.762263330360976765e-02,-8.591189212286559629e-02,-8.430383692209490742e-02,-8.283278606096955432e-02,-8.152344140677349194e-02,-8.038855568543983032e-02,-7.942802785209331085e-02,-7.862936204303187793e-02,-7.796885439076153834e-02,-7.741294306300398886e-02,-7.691976955715351671e-02,-7.644157524354137923e-02,-7.592877946913355325e-02,-7.533615608791323359e-02,-7.462995215272401339e-02,-7.379286403746196377e-02,-7.282395345666535513e-02,-7.173361438693079406e-02,-7.053692858009441569e-02,-6.924936679694322639e-02,-6.788656615054039500e-02,-6.646659720679580496e-02,-6.501126686678676547e-02,-6.354420082162116901e-02,-6.208661591782525108e-02,-6.065381923754433607e-02,-5.925471118438832563e-02,-5.789404057226001793e-02,-5.657533649995726693e-02,-5.530240008989663336e-02,-5.407839668066723171e-02,-5.290317968628920064e-02,-5.177091137896103201e-02,-5.067054108929670148e-02,-4.959050212805520691e-02,-4.852628424437640392e-02,-4.748714630512795160e-02,-4.649826301413440693e-02,-4.559709294480780717e-02,-4.482556288896283325e-02,-4.422077590965989985e-02,-4.380640695698959780e-02,-4.358610054961932490e-02,-4.353980274090660241e-02,-4.362391644544821867e-02,-4.377594363968147217e-02,-4.392317585019274440e-02,-4.399301027185960333e-02,-4.392110621896851141e-02,-4.365477751618827840e-02,-4.315245795317664695e-02,-4.238271243467820609e-02,-4.132578019954692705e-02,-3.997805117141082359e-02,-3.835741597749880299e-02,-3.650631706627995021e-02,-3.449006762473132148e-02,-3.239027711248324004e-02,-3.029549731737157109e-02,-2.829195671640851242e-02,-2.645633687593943600e-02,-2.485093227820907996e-02,-2.352032418503904876e-02,-2.248846118556088389e-02,-2.175562905755535140e-02,-2.129586388513876258e-02,-2.105658475239861882e-02,-2.096242323940736979e-02,-2.092326824284530817e-02,-2.084418961689225511e-02,-2.063516180586145998e-02,-2.022037745115526017e-02,-1.954693098096584383e-02,-1.859095346103904062e-02,-1.735900374443730479e-02,-1.588446829896614926e-02,-1.422090156703571112e-02,-1.243494821478346307e-02,-1.060079937106944183e-02,-8.796752804349139074e-03,-7.102645862459631802e-03,-5.595746049589391154e-03,-4.343732263614666876e-03,-3.396058099421762032e-03,-2.776750369968229801e-03,-2.481263754763810957e-03,-2.477892113674484090e-03,-2.712000739180446020e-03,-3.110806919052555661e-03,-3.587793205292700086e-03,-4.047507877890162142e-03,-4.392156476119980606e-03,-4.530703448404018417e-03,-4.389395963143511055e-03,-3.920667823219696480e-03,-3.107184635107881898e-03,-1.960162687539191480e-03,-5.140812481611971036e-04,1.178923837861934904e-03,3.052850090191319872e-03,5.030072445694347763e-03,7.024127309289629299e-03,8.945030879310072319e-03,1.070740687410795013e-02,1.223952840043552454e-02,1.349029758667908037e-02,1.443233446334237467e-02,1.506185227404383334e-02,1.539761288104554877e-02,1.548076918215876910e-02,1.537545225947866377e-02,1.516816395664830411e-02,1.496382604850628704e-02,1.487801202342362364e-02,1.502711966948975728e-02,1.551904445147000294e-02,1.644568036860867208e-02,1.787673283140807715e-02,1.985386313076626871e-02,2.238564891383092170e-02,2.544549547341089929e-02,2.897426518980913968e-02,3.288740304703805656e-02,3.708497045675475390e-02,4.146267579547649462e-02,4.592165592591133938e-02,5.037488167287791641e-02,5.474950950526964039e-02,5.898631826556745283e-02,6.303812619695270403e-02,6.686849727844842994e-02,7.045065971468307542e-02,7.376550659175198921e-02,7.679795181972096096e-02,7.953246051671783445e-02,8.194967784355323970e-02,8.402578313607766969e-02,8.573495192314471713e-02,8.705410991593375003e-02,8.796857939105971746e-02,8.847724521705016554e-02,8.859639681382404375e-02,8.836229711357386496e-02,8.783317328417912517e-02,8.709079309554222659e-02,8.624018124450497091e-02,8.540524985218668486e-02,8.471976616157574080e-02,8.431580932124985162e-02,8.431286228009025885e-02,8.480914431311523116e-02,8.587445950023314678e-02,8.754307304903027886e-02,8.980682167744921673e-02,9.261113145538828195e-02,9.585709150805249434e-02,9.941044622832914679e-02,1.031152405513189874e-01,1.068082314445252534e-01,1.103309488275683869e-01,1.135386688745944062e-01,1.163076143605132340e-01,1.185417330890830290e-01,1.201786459697525705e-01,1.211927461533209155e-01,1.215936529875645961e-01,1.214201076897117176e-01,1.207314998422254898e-01,1.196001798004345806e-01,1.181067605004200022e-01,1.163385333139061589e-01,1.143900736103834609e-01,1.123653536431826472e-01,1.103801856038354456e-01,1.085623371906026952e-01,1.070460992134434075e-01,1.059591354925274870e-01,1.054017323862034838e-01,1.054219574923230263e-01,1.059934188249898324e-01,1.070029532235354380e-01,1.082530056458943513e-01,1.094792736313693754e-01,1.103804440210927468e-01,1.106546745580401087e-01,1.100369921835194775e-01,1.083326457989761266e-01,1.054429092801061479e-01,1.013811916889888198e-01,9.627835482145701007e-02,9.037624404689501012e-02,8.400774980004672987e-02,7.756267996406190912e-02,7.144270513418980728e-02,6.601306486934983841e-02,6.156019936293157663e-02,5.826233723083696497e-02,5.617592660531267601e-02,5.523662831835123022e-02,5.527117015242227760e-02,5.601666000044353694e-02,5.714586958230111896e-02,5.829815543585750715e-02,5.911494578513597914e-02,5.927658702880635178e-02,5.853500587936750349e-02,5.673590080621070814e-02,5.382644859777346857e-02,4.984920023358675040e-02,4.492720531004389117e-02,3.924629296256482158e-02,3.303743895526720098e-02,2.655848811992260472e-02,2.007334787046839708e-02,1.382840879230609610e-02,8.028896949789006768e-03,2.820087022728371903e-03,-1.722198655853068123e-03,-5.590623166356184330e-03,-8.837014860083808668e-03,-1.155774127038500590e-02,-1.387575846270207476e-02,-1.592030859386585687e-02,-1.780580287232487111e-02,-1.961323600138042619e-02,-2.137841066820825309e-02,-2.308962603527534366e-02,-2.469424258648633685e-02,-2.611093864571279247e-02,-2.724381154324075419e-02,-2.799589583569529402e-02,-2.828194275342905267e-02,-2.804104094148283238e-02,-2.724808812849471504e-02,-2.592127859336325335e-02,-2.412283071337760834e-02,-2.195232185034113118e-02,-1.953481556676371980e-02,-1.700768986174634387e-02,-1.450972443426998271e-02,-1.217396903305669430e-02,-1.012348829059578695e-02,-8.467704474770541834e-03,-7.297552048060069498e-03,-6.679492630390157157e-03,-6.650218080260071433e-03,-7.214383875232795520e-03,-8.346501023658935148e-03,-9.995888196113782848e-03,-1.209213598640573352e-02,-1.454922492836193196e-02,-1.726852041320779338e-02,-2.014233447878430519e-02,-2.305979295605678145e-02,-2.591578794910809683e-02,-2.862233347337835368e-02,-3.112058959074083878e-02,-3.339161397232091877e-02,-3.546349580682764402e-02,-3.741153876336502510e-02,-3.934801669069243335e-02,-4.139960745761785826e-02,-4.367312118826693901e-02,-4.621274478876197939e-02,-4.895454477724195397e-02,-5.168581625521824485e-02,-5.401706699463897088e-02,-5.537311910300792006e-02,-5.500790350430426190e-02,-5.204484866121440734e-02,-4.554080894348596503e-02,-3.456695710161566265e-02,-1.829647932358257137e-02,3.912047978519243158e-03,3.244475459259633238e-02,6.738255848823652971e-02,1.084756186926435773e-01,1.551431799019228897e-01,2.064951152099268328e-01,2.613687105269714706e-01,3.183754783190321236e-01,3.759562119349370013e-01,4.324452396408136057e-01,4.861455786868484896e-01,5.354149895110783541e-01,5.787590834426630249e-01,6.149232625417710985e-01,6.429726175566617963e-01,6.623498270779656361e-01,6.729052600254813443e-01,0.000000000000000000e+00,0.000000000000000000e+00,0.000000000000000000e+00,0.000000000000000000e+00,0.000000000000000000e+00,0.000000000000000000e+00,0.000000000000000000e+00,0.000000000000000000e+00,0.000000000000000000e+00,0.000000000000000000e+00,0.000000000000000000e+00,0.000000000000000000e+00,0.000000000000000000e+00,0.000000000000000000e+00,0.000000000000000000e+00,0.000000000000000000e+00,0.000000000000000000e+00,0.000000000000000000e+00,0.000000000000000000e+00,0.000000000000000000e+00,0.000000000000000000e+00,0.000000000000000000e+00,0.000000000000000000e+00,0.000000000000000000e+00,0.000000000000000000e+00,0.000000000000000000e+00,0.000000000000000000e+00,0.000000000000000000e+00,0.000000000000000000e+00,0.000000000000000000e+00,0.000000000000000000e+00,0.000000000000000000e+00,0.000000000000000000e+00,0.000000000000000000e+00,0.000000000000000000e+00,0.000000000000000000e+00,0.000000000000000000e+00,0.000000000000000000e+00,0.000000000000000000e+00,0.000000000000000000e+00,0.000000000000000000e+00,0.000000000000000000e+00,0.000000000000000000e+00,0.000000000000000000e+00,0.000000000000000000e+00,0.000000000000000000e+00,0.000000000000000000e+00,0.000000000000000000e+00,0.000000000000000000e+00,0.000000000000000000e+00,0.000000000000000000e+00,0.000000000000000000e+00,0.000000000000000000e+00,0.000000000000000000e+00,0.000000000000000000e+00,0.000000000000000000e+00,0.000000000000000000e+00,0.000000000000000000e+00,0.000000000000000000e+00,0.000000000000000000e+00,0.000000000000000000e+00,0.000000000000000000e+00,0.000000000000000000e+00,0.000000000000000000e+00,0.000000000000000000e+00,0.000000000000000000e+00,0.000000000000000000e+00,0.000000000000000000e+00,0.000000000000000000e+00,0.000000000000000000e+00,0.000000000000000000e+00,0.000000000000000000e+00,0.000000000000000000e+00,0.000000000000000000e+00,0.000000000000000000e+00,0.000000000000000000e+00,0.000000000000000000e+00,0.000000000000000000e+00,0.000000000000000000e+00,0.000000000000000000e+00,0.000000000000000000e+00,0.000000000000000000e+00,0.000000000000000000e+00,0.000000000000000000e+00,0.000000000000000000e+00,0.000000000000000000e+00,0.000000000000000000e+00,0.000000000000000000e+00,0.000000000000000000e+00,0.000000000000000000e+00,0.000000000000000000e+00,0.000000000000000000e+00,0.000000000000000000e+00,0.000000000000000000e+00,0.000000000000000000e+00,0.000000000000000000e+00,0.000000000000000000e+00,0.000000000000000000e+00,0.000000000000000000e+00,0.000000000000000000e+00,0.000000000000000000e+00,0.000000000000000000e+00,0.000000000000000000e+00,0.000000000000000000e+00,0.000000000000000000e+00,0.000000000000000000e+00,0.000000000000000000e+00,0.000000000000000000e+00,0.000000000000000000e+00,0.000000000000000000e+00,0.000000000000000000e+00,0.000000000000000000e+00,0.000000000000000000e+00,0.000000000000000000e+00,0.000000000000000000e+00,0.000000000000000000e+00,0.000000000000000000e+00,0.000000000000000000e+00,0.000000000000000000e+00,0.000000000000000000e+00,0.000000000000000000e+00,0.000000000000000000e+00,0.000000000000000000e+00,0.000000000000000000e+00,0.000000000000000000e+00,0.000000000000000000e+00,0.000000000000000000e+00,0.000000000000000000e+00,0.000000000000000000e+00,0.000000000000000000e+00,0.000000000000000000e+00,0.000000000000000000e+00,0.000000000000000000e+00,0.000000000000000000e+00,0.000000000000000000e+00,0.000000000000000000e+00,0.000000000000000000e+00,0.000000000000000000e+00,0.000000000000000000e+00,0.000000000000000000e+00,0.000000000000000000e+00,0.000000000000000000e+00,0.000000000000000000e+00,0.000000000000000000e+00,0.000000000000000000e+00,0.000000000000000000e+00,0.000000000000000000e+00,0.000000000000000000e+00,0.000000000000000000e+00,0.000000000000000000e+00,0.000000000000000000e+00,0.000000000000000000e+00,0.000000000000000000e+00,0.000000000000000000e+00,0.000000000000000000e+00,0.000000000000000000e+00,0.000000000000000000e+00,0.000000000000000000e+00,0.000000000000000000e+00,0.000000000000000000e+00,0.000000000000000000e+00,0.000000000000000000e+00,0.000000000000000000e+00,0.000000000000000000e+00,0.000000000000000000e+00,0.000000000000000000e+00,0.000000000000000000e+00,0.000000000000000000e+00,0.000000000000000000e+00,0.000000000000000000e+00,0.000000000000000000e+00,0.000000000000000000e+00,0.000000000000000000e+00,0.000000000000000000e+00,0.000000000000000000e+00,0.000000000000000000e+00,0.000000000000000000e+00,0.000000000000000000e+00,0.000000000000000000e+00,0.000000000000000000e+00,0.000000000000000000e+00,0.000000000000000000e+00,0.000000000000000000e+00,0.000000000000000000e+00,0.000000000000000000e+00,0.000000000000000000e+00,0.000000000000000000e+00,0.000000000000000000e+00,0.000000000000000000e+00,0.000000000000000000e+00,0.000000000000000000e+00,0.000000000000000000e+00,0.000000000000000000e+00,0.000000000000000000e+00,0.000000000000000000e+00,0.000000000000000000e+00,0.000000000000000000e+00,0.000000000000000000e+00,0.000000000000000000e+00,0.000000000000000000e+00,0.000000000000000000e+00,0.000000000000000000e+00,0.000000000000000000e+00,0.000000000000000000e+00,0.000000000000000000e+00,0.000000000000000000e+00,0.000000000000000000e+00,0.000000000000000000e+00,0.000000000000000000e+00,0.000000000000000000e+00,0.000000000000000000e+00,0.000000000000000000e+00,0.000000000000000000e+00,0.000000000000000000e+00,0.000000000000000000e+00,0.000000000000000000e+00,0.000000000000000000e+00,0.000000000000000000e+00,0.000000000000000000e+00,0.000000000000000000e+00,0.000000000000000000e+00,0.000000000000000000e+00,0.000000000000000000e+00,0.000000000000000000e+00,0.000000000000000000e+00,0.000000000000000000e+00,0.000000000000000000e+00,0.000000000000000000e+00,0.000000000000000000e+00,0.000000000000000000e+00,0.000000000000000000e+00,0.000000000000000000e+00,0.000000000000000000e+00,0.000000000000000000e+00,0.000000000000000000e+00,0.000000000000000000e+00,0.000000000000000000e+00,0.000000000000000000e+00,0.000000000000000000e+00,0.000000000000000000e+00,0.000000000000000000e+00,0.000000000000000000e+00,0.000000000000000000e+00,0.000000000000000000e+00,0.000000000000000000e+00,0.000000000000000000e+00,0.000000000000000000e+00,0.000000000000000000e+00,0.000000000000000000e+00,0.000000000000000000e+00,0.000000000000000000e+00,0.000000000000000000e+00,0.000000000000000000e+00,0.000000000000000000e+00,0.000000000000000000e+00,0.000000000000000000e+00,0.000000000000000000e+00,0.000000000000000000e+00,0.000000000000000000e+00,0.000000000000000000e+00,0.000000000000000000e+00,0.000000000000000000e+00,0.000000000000000000e+00,0.000000000000000000e+00,0.000000000000000000e+00,0.000000000000000000e+00,0.000000000000000000e+00,0.000000000000000000e+00,0.000000000000000000e+00,0.000000000000000000e+00,0.000000000000000000e+00,0.000000000000000000e+00,0.000000000000000000e+00,0.000000000000000000e+00,0.000000000000000000e+00,0.000000000000000000e+00,0.000000000000000000e+00,0.000000000000000000e+00,0.000000000000000000e+00,0.000000000000000000e+00,0.000000000000000000e+00,0.000000000000000000e+00,0.000000000000000000e+00,0.000000000000000000e+00,0.000000000000000000e+00,0.000000000000000000e+00,0.000000000000000000e+00,0.000000000000000000e+00,0.000000000000000000e+00,0.000000000000000000e+00,0.000000000000000000e+00,0.000000000000000000e+00,0.000000000000000000e+00,0.000000000000000000e+00,0.000000000000000000e+00,0.000000000000000000e+00,0.000000000000000000e+00,0.000000000000000000e+00,0.000000000000000000e+00,0.000000000000000000e+00,0.000000000000000000e+00,0.000000000000000000e+00,0.000000000000000000e+00,0.000000000000000000e+00,0.000000000000000000e+00,0.000000000000000000e+00,0.000000000000000000e+00,0.000000000000000000e+00,0.000000000000000000e+00,0.000000000000000000e+00,0.000000000000000000e+00,0.000000000000000000e+00,0.000000000000000000e+00,0.000000000000000000e+00,0.000000000000000000e+00,0.000000000000000000e+00,0.000000000000000000e+00,0.000000000000000000e+00,0.000000000000000000e+00,0.000000000000000000e+00,0.000000000000000000e+00,0.000000000000000000e+00,0.000000000000000000e+00,0.000000000000000000e+00,0.000000000000000000e+00,0.000000000000000000e+00,0.000000000000000000e+00,0.000000000000000000e+00,0.000000000000000000e+00,0.000000000000000000e+00,0.000000000000000000e+00,0.000000000000000000e+00,0.000000000000000000e+00,0.000000000000000000e+00,0.000000000000000000e+00,0.000000000000000000e+00,0.000000000000000000e+00,0.000000000000000000e+00,0.000000000000000000e+00,0.000000000000000000e+00,0.000000000000000000e+00,0.000000000000000000e+00,0.000000000000000000e+00,0.000000000000000000e+00,0.000000000000000000e+00,0.000000000000000000e+00,0.000000000000000000e+00,0.000000000000000000e+00,0.000000000000000000e+00,0.000000000000000000e+00,0.000000000000000000e+00,0.000000000000000000e+00,0.000000000000000000e+00,0.000000000000000000e+00,0.000000000000000000e+00,0.000000000000000000e+00,0.000000000000000000e+00,0.000000000000000000e+00,0.000000000000000000e+00,0.000000000000000000e+00,0.000000000000000000e+00,0.000000000000000000e+00,0.000000000000000000e+00,0.000000000000000000e+00,0.000000000000000000e+00,0.000000000000000000e+00,0.000000000000000000e+00,0.000000000000000000e+00,0.000000000000000000e+00,0.000000000000000000e+00,0.000000000000000000e+00,0.000000000000000000e+00,0.000000000000000000e+00,0.000000000000000000e+00,0.000000000000000000e+00,0.000000000000000000e+00,0.000000000000000000e+00,0.000000000000000000e+00,0.000000000000000000e+00,0.000000000000000000e+00,0.000000000000000000e+00,0.000000000000000000e+00,0.000000000000000000e+00,0.000000000000000000e+00,0.000000000000000000e+00,0.000000000000000000e+00,0.000000000000000000e+00,0.000000000000000000e+00,0.000000000000000000e+00,0.000000000000000000e+00,0.000000000000000000e+00,0.000000000000000000e+00,0.000000000000000000e+00,0.000000000000000000e+00,0.000000000000000000e+00,0.000000000000000000e+00,0.000000000000000000e+00,0.000000000000000000e+00,0.000000000000000000e+00,0.000000000000000000e+00,0.000000000000000000e+00,0.000000000000000000e+00,0.000000000000000000e+00,0.000000000000000000e+00,0.000000000000000000e+00,0.000000000000000000e+00,0.000000000000000000e+00,0.000000000000000000e+00,0.000000000000000000e+00,0.000000000000000000e+00,0.000000000000000000e+00,0.000000000000000000e+00,0.000000000000000000e+00,0.000000000000000000e+00,0.000000000000000000e+00,0.000000000000000000e+00,0.000000000000000000e+00,0.000000000000000000e+00,0.000000000000000000e+00,0.000000000000000000e+00,0.000000000000000000e+00,0.000000000000000000e+00,0.000000000000000000e+00,0.000000000000000000e+00,0.000000000000000000e+00,0.000000000000000000e+00,0.000000000000000000e+00,0.000000000000000000e+00,0.000000000000000000e+00,0.000000000000000000e+00,0.000000000000000000e+00,0.000000000000000000e+00,0.000000000000000000e+00,0.000000000000000000e+00,0.000000000000000000e+00,0.000000000000000000e+00,0.000000000000000000e+00,0.000000000000000000e+00,0.000000000000000000e+00,0.000000000000000000e+00,0.000000000000000000e+00,0.000000000000000000e+00,0.000000000000000000e+00,0.000000000000000000e+00,0.000000000000000000e+00,0.000000000000000000e+00,0.000000000000000000e+00,0.000000000000000000e+00,0.000000000000000000e+00,0.000000000000000000e+00,0.000000000000000000e+00,0.000000000000000000e+00,0.000000000000000000e+00,0.000000000000000000e+00,0.000000000000000000e+00,0.000000000000000000e+00,0.000000000000000000e+00,0.000000000000000000e+00,0.000000000000000000e+00,0.000000000000000000e+00,0.000000000000000000e+00,0.000000000000000000e+00,0.000000000000000000e+00,0.000000000000000000e+00,0.000000000000000000e+00,0.000000000000000000e+00,0.000000000000000000e+00,0.000000000000000000e+00,0.000000000000000000e+00,0.000000000000000000e+00,0.000000000000000000e+00,0.000000000000000000e+00,0.000000000000000000e+00,0.000000000000000000e+00,0.000000000000000000e+00,0.000000000000000000e+00,0.000000000000000000e+00,0.000000000000000000e+00,0.000000000000000000e+00,0.000000000000000000e+00,0.000000000000000000e+00,0.000000000000000000e+00,0.000000000000000000e+00,0.000000000000000000e+00,0.000000000000000000e+00,0.000000000000000000e+00,0.000000000000000000e+00,0.000000000000000000e+00,0.000000000000000000e+00,0.000000000000000000e+00,0.000000000000000000e+00,0.000000000000000000e+00,0.000000000000000000e+00,0.000000000000000000e+00,0.000000000000000000e+00,0.000000000000000000e+00,0.000000000000000000e+00,0.000000000000000000e+00,0.000000000000000000e+00,0.000000000000000000e+00,0.000000000000000000e+00,0.000000000000000000e+00,0.000000000000000000e+00,0.000000000000000000e+00,0.000000000000000000e+00,0.000000000000000000e+00,0.000000000000000000e+00,0.000000000000000000e+00,0.000000000000000000e+00,0.000000000000000000e+00
