1.952116234732960698e-01,1.891267775442458388e-01,1.764138667160118079e-01,1.580125610642050815e-01,1.352424218389574329e-01,1.096805149685161490e-01,8.301082370027584867e-02,5.686592256510668991e-02,3.268276867974803657e-02,1.159029686601504260e-02,-5.659627254184224424e-03,-1.871280584575268566e-02,-2.758724938442789695e-02,-3.261109073492757249e-02,-3.433681876871421540e-02,-3.344451586438585561e-02,-3.064537903218145232e-02,-2.659582164343302080e-02,-2.183112809334727608e-02,-1.672555894573403423e-02,-1.148362837817925967e-02,-6.163883103037392196e-03,-7.297863248594089677e-04,4.885932596662424278e-03,1.072125505542802573e-02,1.674417127391938931e-02,2.283911095113215842e-02,2.882025825164467175e-02,3.446416947692049898e-02,3.954939431244197667e-02,4.389121308634158503e-02,4.736464947449100377e-02,4.991448666291813108e-02,5.155384051606351492e-02,5.235328378678686528e-02,5.242266073766811696e-02,5.188868598767833878e-02,5.087262016425489475e-02,4.947255309590332939e-02,4.775347165177744324e-02,4.574596597697127426e-02,4.345266840011538512e-02,4.086085783325599241e-02,3.795902881685582486e-02,3.475410991440584796e-02,3.128520991891827613e-02,2.763016201748717468e-02,2.390305772252617270e-02,2.024356727229695285e-02,1.680084757253159575e-02,1.371602214514930709e-02,1.110736350412145496e-02,9.060592589990019638e-03,7.623886364944054000e-03,6.805768306297440770e-03,6.575044966637210754e-03,6.863434786226699051e-03,7.571575015338255499e-03,8.578031457741327331e-03,9.749882896545887523e-03,1.095286872104107509e-02,1.205957412474836440e-02,1.295592066878085979e-02,1.354781092324132581e-02,1.376927708420569961e-02,1.359124723489463227e-02,1.302832942991243026e-02,1.214112959980861300e-02,1.103265457201591491e-02,9.838522049805108541e-03,8.712498266382300710e-03,7.810549855871640017e-03,7.276024105320031202e-03,7.226189009205260735e-03,7.739328421806425905e-03,8.843088297038873349e-03,1.050660665993692969e-02,1.263923721330564680e-02,1.509758482820659775e-02,1.770059302089451933e-02,2.025004642479278499e-02,2.255251441532683115e-02,2.443946566802410528e-02,2.578394653624323934e-02,2.651287245680891344e-02,2.661337390723595916e-02,2.613166268526809569e-02,2.516470836596580718e-02,2.384709143688725635e-02,2.233591936762534605e-02,2.079610490575920650e-02,1.938756313203217341e-02,1.825472168209889626e-02,1.751741752492477072e-02,1.726214428971470718e-02,1.753401504172812791e-02,1.833135651131788391e-02,1.960513106930579855e-02,2.126416008604175428e-02,2.318532038425000219e-02,2.522655766114656820e-02,2.724029431234804843e-02,2.908571082269977015e-02,3.063969932035935997e-02,3.180680867485433799e-02,3.252788363772877306e-02,3.278618230241817089e-02,3.260949527082331739e-02,3.206732453299130509e-02,3.126316599155050391e-02,3.032320208431925346e-02,2.938353659528929185e-02,2.857742620023147676e-02,2.802256426907426615e-02,2.780846300652058123e-02,2.798545405133025243e-02,2.855782428206123449e-02,2.948314853805601363e-02,3.067858100347662167e-02,3.203307626090613758e-02,3.342247502263406833e-02,3.472367452388223918e-02,3.582583955901872536e-02,3.663913332651243249e-02,3.710228464070787491e-02,3.718912324633058542e-02,3.691271916034123690e-02,3.632557153994824678e-02,3.551519533206745627e-02,3.459545470455092225e-02,3.369483734514645140e-02,3.294346719312552657e-02,3.246078946083278544e-02,3.234534268926127915e-02,3.266690763682968124e-02,3.346059949644016041e-02,3.472295088139384228e-02,3.641077632189948510e-02,3.844359143783741134e-02,4.070972505362684124e-02,4.307520885390095366e-02,4.539372040209337794e-02,4.751664928817159184e-02,4.930425265736073509e-02,5.063921470636510019e-02,5.144168214200969813e-02,5.168231630405296234e-02,5.138956211844888933e-02,5.064896804384200896e-02,4.959449746017738359e-02,4.839341515756778039e-02,4.722708416789746233e-02,4.627006121205747002e-02,4.566964061359197330e-02,4.552770296165090103e-02,4.588709917884915834e-02,4.672569771520851400e-02,4.796060756221416643e-02,4.946212854653218860e-02,5.107373638289578605e-02,5.263315990802662492e-02,5.399074191477956641e-02,5.502372984327552619e-02,5.564721889189581938e-02,5.582256144747166360e-02,5.556222292100428117e-02,5.492870330129256962e-02,5.402620587503535049e-02,5.298610718303381484e-02,5.194899710529205655e-02,5.104685825649525610e-02,5.038894008303949207e-02,5.005368549724635574e-02,5.008697743007171910e-02,5.050486007753087619e-02,5.129779642176138243e-02,5.243414845611850394e-02,5.386224008018077741e-02,5.551189218601881858e-02,5.729705800047292519e-02,5.912061319264207832e-02,6.088091638948459755e-02,6.247916124174549002e-02,6.382725290432780807e-02,6.485642255741938533e-02,6.552598948096266529e-02,6.583041575945847157e-02,6.580243602626828503e-02,6.551082664847110437e-02,6.505275246801023314e-02,6.454212192342942411e-02,6.409627993355772324e-02,6.382304543833719479e-02,6.380904128548868515e-02,6.410967311081992859e-02,6.474153562513459970e-02,6.567855441625385093e-02,6.685270892350818339e-02,6.815926026498277113e-02,6.946595176678278805e-02,7.062521054576749446e-02,7.148771046637875104e-02,7.191578681096527648e-02,7.179629973541784560e-02,7.105303756122531567e-02,6.965771945498615281e-02,6.763752471472943284e-02,6.507731620005335893e-02,6.211559320818723501e-02,5.893373863419364839e-02,5.573895784202882731e-02,5.274270649663795330e-02,5.013737540987612401e-02,4.807412741660321842e-02,4.664465299597928688e-02,4.586956756415890707e-02,4.569562853256237123e-02,4.600222459767036587e-02,4.661541142229413959e-02,4.732662253227924720e-02,4.791329445339150700e-02,4.815924267904260481e-02,4.787337058704824178e-02,4.690611715357274197e-02,4.516336488544749755e-02,4.261683757000920419e-02,3.930921367433528463e-02,3.535256761604843589e-02,3.091996115369462228e-02,2.623106464587477565e-02,2.153362567128069144e-02,1.708313476709423517e-02,1.312249787047395540e-02,9.862683375949402378e-03,7.465212707428984899e-03,6.027743830268124554e-03,5.574484432121534945e-03,6.053554605465119066e-03,7.342940390594265322e-03,9.264883845084790140e-03,1.160619569106064244e-02,1.414058725170299312e-02,1.664960136600541346e-02,1.894044087488933742e-02,2.086046221678011792e-02,2.230827808209629240e-02,2.324067433456023304e-02,2.367418721701751091e-02,2.368072279023211019e-02,2.337773855441640375e-02,2.291483302298311098e-02,2.245900794299354394e-02,2.217964615471373566e-02,2.223284040651066565e-02,2.274491359099506047e-02,2.379651478162761111e-02,2.541024423534445770e-02,2.754520363112313366e-02,3.010047358253544261e-02,3.292692221495883281e-02,3.584456280042233600e-02,3.866206920291588578e-02,4.119607587842513685e-02,4.328924605098819628e-02,4.482628388778677614e-02,4.574634460264667690e-02,4.605006132679420605e-02,4.579996535490869075e-02,4.511382587985690584e-02,4.415140376690518398e-02,4.309640894705218245e-02,4.213630381896523586e-02,4.144242849716470167e-02,4.115228714522744385e-02,4.135550012427896549e-02,4.208478588376014795e-02,4.331280385334321248e-02,4.495495629627191403e-02,4.687799496269647037e-02,4.891416645341623709e-02,5.087970304686229017e-02,5.259500558738698650e-02,5.390324627226434490e-02,5.468496980932231744e-02,5.486780987088588774e-02,5.443150100459537288e-02,5.340863862531701478e-02,5.188150278828222717e-02,4.997488867186975631e-02,4.784469149190011955e-02,4.566283811147232169e-02,4.360063643761680902e-02,4.181300063364461889e-02,4.042490137525070470e-02,3.952035129980266404e-02,3.913428293059655755e-02,3.924814428975310909e-02,3.979033716592848824e-02,4.064271622061570166e-02,4.165360448129976773e-02,4.265587553256439124e-02,4.348689767972394732e-02,4.400686350779739464e-02,4.411303476373318322e-02,4.374867532291788763e-02,4.290643097819180074e-02,4.162671426161990845e-02,3.999209281496819007e-02,3.811850489764108396e-02,3.614373542121589178e-02,3.421377776706852059e-02,3.246844987395279547e-02,3.102788103983455253e-02,2.998085836828944667e-02,2.937558621762142649e-02,2.921390330447265482e-02,2.945045391950644811e-02,2.999756968088871517e-02,3.073522170563356207e-02,3.152449764439616692e-02,3.222265682029395312e-02,3.269774529226079224e-02,3.284141776091073495e-02,3.257954677220076256e-02,3.188030650832430341e-02,3.075891187826397880e-02,2.927799818515640709e-02,2.754285558731213793e-02,2.569130001012508505e-02,2.387915870315861569e-02,2.226384035971009506e-02,2.098898150059257464e-02,2.017205727648265640e-02,1.989506001851141723e-02,2.019740397996491396e-02,2.107084232901084223e-02,2.245758211464429083e-02,2.425321482844747592e-02,2.631503105947425453e-02,2.847486322290409058e-02,3.055462189329678432e-02,3.238241342950155116e-02,3.380773650684493203e-02,3.471503504916417099e-02,3.503475171930407056e-02,3.475030391419003939e-02,3.389928689046344673e-02,3.256804214198252140e-02,3.088010208713375809e-02,2.898064675149369246e-02,2.702041575343593072e-02,2.514222789709648354e-02,2.347102172996000380e-02,2.210605669144343963e-02,2.111369275085417732e-02,2.052077464054863007e-02,2.031026988901437486e-02,2.042114554788944727e-02,2.075356052918684094e-02,2.117901515933834355e-02,2.155373815642431384e-02,2.173294636267545862e-02,2.158430143169553020e-02,2.100037271471828781e-02,1.991037526195603771e-02,1.829011511554760536e-02,1.616772386087014443e-02,1.362320157475536628e-02,1.078129342830626454e-02,7.798493223560068119e-03,4.846234803838637625e-03,2.093511873569463451e-03,-3.082355011519175643e-04,-2.237245915295497933e-03,-3.611376559827291638e-03,-4.395938163352084739e-03,-4.607774220610563048e-03,-4.313632146912424470e-03,-3.622565420035957738e-03,-2.674110528726233310e-03,-1.624788116173265292e-03,-6.350201641570277352e-04,1.426971353399393485e-04,5.749098938288023895e-04,5.584594658791838372e-04,3.137914242573189240e-05,-1.018662371461188021e-03,-2.550710003399556114e-03,-4.473015492308051420e-03,-6.651594513007456216e-03,-8.923276783399543971e-03,-1.111096162301755154e-02,-1.303958830894854162e-02,-1.455272664531539160e-02,-1.552973739170827872e-02,-1.590150824507063562e-02,-1.566088759489387208e-02,-1.486477982879278771e-02,-1.362783448933792101e-02,-1.210968233167821970e-02,-1.049790416184747353e-02,-8.988845077702277420e-03,-7.768389076210962564e-03,-6.994325487352260132e-03,-6.781269978410013957e-03,-7.188971526922157546e-03,-8.215233480480040040e-03,-9.794840530090477559e-03,-1.180531139926065294e-02,-1.407917549863170990e-02,-1.642104904723955955e-02,-1.862656996001365445e-02,-2.050034464375162860e-02,-2.187172006768376906e-02,-2.260877641273197070e-02,-2.263070733315496186e-02,-2.191722252771950014e-02,-2.051271598463304258e-02,-1.852356864063186420e-02,-1.610846351240404969e-02,-1.346311941324181659e-02,-1.080186969680342439e-02,-8.338626959170432340e-03,-6.268956217005110070e-03,-4.753977303875485914e-03,-3.906566249891647510e-03,-3.780929309314990435e-03,-4.367208553422225609e-03,-5.592391958583374512e-03,-7.327475351405904336e-03,-9.399534120423809133e-03,-1.160704103927868297e-02,-1.373746888675421267e-02,-1.558691188041517149e-02,-1.698090855773002131e-02,-1.779390418199054691e-02,-1.796346086597101765e-02,-1.749591305514017550e-02,-1.646237268960348138e-02,-1.498636129516898487e-02,-1.322601717407789930e-02,-1.135449931023050502e-02,-9.541690123469113646e-03,-7.938866435166537505e-03,-6.666576286711418074e-03,-5.805686535326544384e-03,-5.392364335997791407e-03,-5.417803938025630810e-03,-5.832320581621992100e-03,-6.552807099778818790e-03,-7.472776703375753893e-03,-8.473871268620692537e-03,-9.437215727273618598e-03,-1.025359706099131588e-02,-1.083238368226389220e-02,-1.110904203054197993e-02,-1.105037989403636657e-02,-1.065642187770099274e-02,-9.958408194492918489e-03,-9.013441557209412799e-03,-7.897529156935532632e-03,-6.699366301004777528e-03,-5.516009985810939494e-03,-4.449087623762228508e-03,-3.598804116155499867e-03,-3.054451009838165133e-03,-2.883057607283759372e-03,-3.119376623946214233e-03,-3.759832951062055343e-03,-4.761769444355123775e-03,-6.047879347091944524e-03,-7.514178272909023334e-03,-9.039425094997650609e-03,-1.049529481137708234e-02,-1.175813469614786673e-02,-1.272250879462987969e-02,-1.331453956355280362e-02,-1.350197277825532401e-02,-1.329874052190531397e-02,-1.276324135213903477e-02,-1.199085187224917769e-02,-1.110224313788097696e-02,-1.022938133242636168e-02,-9.500645687579705248e-03,-9.026228429277893470e-03,-8.885415511899728142e-03,-9.117809190378797085e-03,-9.719941536642622004e-03,-1.064721920493936526e-02,-1.182023820185250720e-02,-1.313453748235617925e-02,-1.447262011953379113e-02,-1.571658326150580584e-02,-1.676009439280142996e-02,-1.751926444430803448e-02,-1.794181165275300638e-02,-1.801303245369710246e-02,-1.775691058440346387e-02,-1.723185545942387820e-02,-1.652240093899700821e-02,-1.572925341886316844e-02,-1.495947178313532244e-02,-1.431705332850001164e-02,-1.389323887010121376e-02,-1.375616887855690695e-02,-1.394093012595145481e-02,-1.444245401780423071e-02,-1.521384188982166132e-02,-1.617145412527450435e-02,-1.720640236521095087e-02,-1.820011001118050295e-02,-1.903983404742097540e-02,-1.963041995257114661e-02,-1.990163649480479469e-02,-1.981317209307617913e-02,-1.935890135075046467e-02,-1.856974753616700766e-02,-1.751334777493440686e-02,-1.628907035281581400e-02,-1.501791504852551147e-02,-1.382862968325845009e-02,-1.284319860449938296e-02,-1.216472679758292749e-02,-1.186870154782377479e-02,-1.199705219582625736e-02,-1.255460305914562862e-02,-1.350810797708992816e-02,-1.478800902134139519e-02,-1.629311559628307537e-02,-1.789860050633359026e-02,-1.946693165478898327e-02,-2.086007602138480188e-02,-2.195126549404598226e-02,-2.263582078741764592e-02,-2.284121541188133958e-02,-2.253576000846763822e-02,-2.173405535952661893e-02,-2.049719182896164726e-02,-1.892669792757125866e-02,-1.715279025402373023e-02,-1.531921087584655131e-02,-1.356818285015949296e-02,-1.202850337931081655e-02,-1.080752809975911444e-02,-9.985723293316064314e-03,-9.612314562276414939e-03,-9.701907262367885296e-03,-1.023285521541811814e-02,-1.114784073512374227e-02,-1.235683299305957716e-02,-1.374288337272393766e-02,-1.517100016565951608e-02,-1.649930337110878595e-02,-1.759100101334692967e-02,-1.832618194186752536e-02,-1.861314645481076252e-02,-1.839887477865436924e-02,-1.767731056358946493e-02,-1.649327514009377160e-02,-1.494006334787786189e-02,-1.315054439948589587e-02,-1.128365081557676335e-02,-9.508747683470654757e-03,-7.989341486793307551e-03,-6.866322644477004106e-03,-6.241296585040686379e-03,-6.162447598988017756e-03,-6.616323028573896196e-03,-7.527790233116817865e-03,-8.768427212744510021e-03,-1.017152023109959245e-02,-1.155011501297471301e-02,-1.271468055233261792e-02,-1.348915829851150133e-02,-1.372602455859068399e-02,-1.332042705061650852e-02,-1.222158179739129755e-02,-1.043880981413806107e-02,-8.040432143633643308e-03,-5.145267282322451251e-03,-1.908099185727492970e-03,1.498204520267487671e-03,4.901182111125296052e-03,8.146273451753109629e-03,1.111236204593075462e-02,1.372365970265533586e-02,1.595576824363344193e-02,1.783516392066276240e-02,1.943309150423250947e-02,2.085493378271180073e-02,2.222581482548472570e-02,2.367430986171159546e-02,2.531739518546109388e-02,2.724902790412467649e-02,2.953254799519416940e-02,3.219610601494706653e-02,3.523141629974641670e-02,3.859683440172230473e-02,4.222424190762524149e-02,4.602728772669947149e-02,4.990829521494173637e-02,5.376242040582028536e-02,5.747955874884943389e-02,6.094619831181283948e-02,6.404975229489376365e-02,6.668644279833157995e-02,6.877174585430305409e-02,7.025143787556567543e-02,7.111150332549234787e-02,7.138551355639921603e-02,7.115832610569018668e-02,7.056503567592140036e-02,6.978365899438956910e-02,6.901995751817678604e-02,6.848452660599320396e-02,6.836531295803002783e-02,6.880101081385987805e-02,6.986092405390557925e-02,7.153511153224226260e-02,7.373613473129705942e-02,7.631130220240645023e-02,7.906232423864849312e-02,8.176852302628755120e-02,8.421057376216993517e-02,8.619288061345939389e-02,8.756257602198568024e-02,8.822259777075408538e-02,8.813743256006227600e-02,8.733239069360554385e-02,8.588824900329952716e-02,8.393257912049335856e-02,8.162842238715294074e-02,7.916042088197601523e-02,7.671813429526974648e-02,7.447655913237638536e-02,7.257499276142247158e-02,7.109717559706085765e-02,7.005719142060605475e-02,6.939569351619527537e-02,6.898919535678277315e-02,6.867144484934264992e-02,6.826163237140774054e-02,6.759240327252473424e-02,6.653245804264194818e-02,6.500161694129605316e-02,6.297829764815968123e-02,6.049988692116249622e-02,5.765620352845152174e-02,5.457647912907340193e-02,5.141150678467416163e-02,4.831404497974377960e-02,4.542115284994360097e-02,4.284097249561458209e-02,4.064385140674768582e-02,3.885582783979449339e-02,3.745333817718091152e-02,3.636049168725290909e-02,3.545142887105829504e-02,3.455909523368367459e-02,3.348998011565081784e-02,3.204324923651159090e-02,3.003169909981259073e-02,2.730133236671738323e-02,2.374723695847049537e-02,1.932504566453270567e-02,1.405761725041775392e-02,8.035904403969857529e-03,1.413009087448591130e-03,-5.608575383664422473e-03,-1.279552941715340203e-02,-1.990586146831867242e-02,-2.671075091885974015e-02,-3.301178230251985285e-02,-3.865160492215202748e-02,-4.351928044486922526e-02,-4.755284687967847174e-02,-5.074059464853857698e-02,-5.312083383809332315e-02,-5.477892304698347981e-02,-5.584045325738392490e-02,-5.646041599600593736e-02,-5.680941352207958400e-02,-5.705872384540215669e-02,-5.736570550651150235e-02,-5.786031517453718576e-02,-5.863354124509509435e-02,-5.972913052886178603e-02,-6.114009483327099981e-02,-6.281079743322599829e-02,-6.464438850075403253e-02,-6.651435348595434449e-02,-6.827825661315070627e-02,-6.979198691609318772e-02,-7.092398543808045575e-02,-7.156992164681126589e-02,-7.166762491893476084e-02,-7.120980890710464084e-02,-7.025068239079772237e-02,-6.890373360185052254e-02,-6.733045871533094306e-02,-6.572192445132930827e-02,-6.427674334569961900e-02,-6.317967575460012308e-02,-6.258368959719168290e-02,-6.259594732687009944e-02,-6.326718368073938614e-02,-6.458506010151016108e-02,-6.647350296316356655e-02,-6.879953343508911356e-02,-7.138692107718716540e-02,-7.403415475218970421e-02,-7.653377581839555799e-02,-7.869086101229312569e-02,-8.033973239179294235e-02,-8.135866704071918754e-02,-8.168172192096709305e-02,-8.130575975867061767e-02,-8.029106140824884830e-02,-7.875544561983768843e-02,-7.686307583746951333e-02,-7.480963692337232185e-02,-7.280577632798498899e-02,-7.106061994206999688e-02,-6.976654722267357223e-02,-6.908572877695273728e-02,-6.913914605372181721e-02,-6.999956227250425655e-02,-7.168952422106600331e-02,-7.418377831849212733e-02,-7.741420092451199719e-02,-8.127529624345367076e-02,-8.562897194932195255e-02,-9.030838856225115174e-02,-9.512192119014123426e-02,-9.985871955752015361e-02,-1.042965587102002989e-01,-1.082117193032476610e-01,-1.113907812875248871e-01,-1.136447648775451014e-01,-1.148252526030227594e-01,-1.148403409993850599e-01,-1.136677770378578534e-01,-1.113638377867464530e-01,-1.080671850908578036e-01,-1.039961347695193827e-01,-9.943770605307465649e-02,-9.472893893435233026e-02,-9.023331574952057899e-02,-8.631521336367431463e-02,-8.331330619619858879e-02,-8.151210445018493289e-02,-8.111183605789788753e-02,-8.220070017945275975e-02,-8.473644441798565408e-02,-8.854222463673899757e-02,-9.331565723544987812e-02,-9.864500899650091581e-02,-1.040261443384864898e-01,-1.088774354059545146e-01,-1.125548148187241471e-01,-1.143732505647543363e-01,-1.136418304258220574e-01,-1.097158591325900351e-01,-1.020624021147333721e-01,-9.032927671309798345e-02,-7.440461062229450362e-02,-5.445615290886093168e-02,-3.094555998363006377e-02,-4.618857313405813105e-03,2.352338254939001852e-02,5.227352854811184724e-02,8.028108293128620454e-02,1.061330130330632032e-01,1.284479581902922274e-01,1.459788268863893845e-01,1.577152221932724141e-01,0.000000000000000000e+00,0.000000000000000000e+00,0.000000000000000000e+00,0.000000000000000000e+00,0.000000000000000000e+00,0.000000000000000000e+00,0.000000000000000000e+00,0.000000000000000000e+00,0.000000000000000000e+00,0.000000000000000000e+00,0.000000000000000000e+00,0.000000000000000000e+00,0.000000000000000000e+00,0.000000000000000000e+00,0.000000000000000000e+00,0.000000000000000000e+00,0.000000000000000000e+00,0.000000000000000000e+00,0.000000000000000000e+00,0.000000000000000000e+00,0.000000000000000000e+00,0.000000000000000000e+00,0.000000000000000000e+00,0.000000000000000000e+00,0.000000000000000000e+00,0.000000000000000000e+00,0.000000000000000000e+00,0.000000000000000000e+00,0.000000000000000000e+00,0.000000000000000000e+00,0.000000000000000000e+00,0.000000000000000000e+00,0.000000000000000000e+00,0.000000000000000000e+00,0.000000000000000000e+00,0.000000000000000000e+00,0.000000000000000000e+00,0.000000000000000000e+00,0.000000000000000000e+00,0.000000000000000000e+00,0.000000000000000000e+00,0.000000000000000000e+00,0.000000000000000000e+00,0.000000000000000000e+00,0.000000000000000000e+00,0.000000000000000000e+00,0.000000000000000000e+00,0.000000000000000000e+00
1.629755599954752776e-01,1.614785659179686639e-01,1.533840694291224160e-01,1.392939985091387611e-01,1.202077417958277022e-01,9.743221955926037459e-02,7.245564835457588004e-02,4.680276472045492853e-02,2.189367785466773964e-02,-1.073840486275370832e-03,-2.120560365557471252e-02,-3.795003911806250907e-02,-5.109515901131840565e-02,-6.072852512510302364e-02,-6.716904149762797926e-02,-7.088148967041828230e-02,-7.238604833873307776e-02,-7.217622652315038023e-02,-7.065751430688362034e-02,-6.811402713368881756e-02,-6.470422401972100723e-02,-6.048303370516742300e-02,-5.544552835733777135e-02,-4.958342821393679073e-02,-4.294115858726300916e-02,-3.565733091718117226e-02,-2.798157130832661793e-02,-2.026268692098519980e-02,-1.291035707855042909e-02,-6.339112054615772020e-03,-9.088636936860646333e-04,3.123242735447558354e-03,5.630535604479554833e-03,6.622524798607160729e-03,6.232074360491409067e-03,4.689367972668820328e-03,2.287801958047186186e-03,-6.541025480535674194e-04,-3.831065842910485152e-03,-6.985318899038687156e-03,-9.931936900546457433e-03,-1.257135246046415210e-02,-1.488765784497987285e-02,-1.693468730073900003e-02,-1.881464019856661507e-02,-2.065443636750950371e-02,-2.258322693170637316e-02,-2.471258366775736307e-02,-2.712019927796743834e-02,-2.983818333041028323e-02,-3.284735706342958167e-02,-3.607837597382825001e-02,-3.941918447519180552e-02,-4.272753192515024723e-02,-4.584705975889527552e-02,-4.862480444366391874e-02,-5.092746659038855511e-02,-5.265456942862040135e-02,-5.374796258904254026e-02,-5.419762542638093678e-02,-5.404320583859283794e-02,-5.337034249424919136e-02,-5.230157810416325576e-02,-5.098316516519756092e-02,-4.957021115731196498e-02,-4.821273521085691488e-02,-4.704417752526251356e-02,-4.617248114492995131e-02,-4.567317177619861085e-02,-4.558416732836732127e-02,-4.590287731863791632e-02,-4.658662990136636095e-02,-4.755696025079008543e-02,-4.870731703573921018e-02,-4.991299900539600265e-02,-5.104171272553349736e-02,-5.196343830793487273e-02,-5.255950675207008566e-02,-5.273169058224879552e-02,-5.241140831615623275e-02,-5.156762988201394476e-02,-5.021156926059156672e-02,-4.839699297463337380e-02,-4.621587414056665261e-02,-4.378999078290907870e-02,-4.126005492709935996e-02,-3.877406888950220981e-02,-3.647543255081620028e-02,-3.449054257745310520e-02,-3.291662367485192336e-02,-3.181213695277099185e-02,-3.119207632306894573e-02,-3.102867572465887319e-02,-3.125657092240161777e-02,-3.178112928885865052e-02,-3.248849348219232797e-02,-3.325589970086825081e-02,-3.396178845669193397e-02,-3.449623334710649747e-02,-3.477173478582543109e-02,-3.473288836689005649e-02,-3.436276221788001073e-02,-3.368456329958686990e-02,-3.275812322636585672e-02,-3.167147214551938733e-02,-3.052888899321987495e-02,-2.943765250651661849e-02,-2.849518305126317805e-02,-2.777732108588958082e-02,-2.732862728977988181e-02,-2.715614193591609979e-02,-2.722762611397166674e-02,-2.747438998272982297e-02,-2.779853911108732742e-02,-2.808433891415570982e-02,-2.821237618552229626e-02,-2.807401661661228232e-02,-2.758380943833762741e-02,-2.668893362868232644e-02,-2.537590397042335105e-02,-2.367428131638004210e-02,-2.165598985416726519e-02,-1.942904418725930477e-02,-1.712615643083896522e-02,-1.489042214708562878e-02,-1.286114426819490002e-02,-1.116221674594909848e-02,-9.893397874141953222e-03,-9.123227257328857254e-03,-8.883080751986320231e-03,-9.163611400521444461e-03,-9.915154472059590010e-03,-1.105252338384919361e-02,-1.246347571406641354e-02,-1.401949807313174375e-02,-1.558723213730017418e-02,-1.703909414844100717e-02,-1.826244742113514868e-02,-1.916723797942020829e-02,-1.969197200852003740e-02,-1.980784818435219613e-02,-1.952080851289515750e-02,-1.887111573250482843e-02,-1.793036863890752966e-02,-1.679671780774162973e-02,-1.558928861106003740e-02,-1.444157754335267767e-02,-1.349192547332688299e-02,-1.286935095181005774e-02,-1.267583079437262054e-02,-1.296930177953712487e-02,-1.375219741708588912e-02,-1.496819160125634728e-02,-1.650740602526230491e-02,-1.821875332285884108e-02,-1.992689137934164356e-02,-2.145078833458259962e-02,-2.262179972157859001e-02,-2.330051350816234046e-02,-2.339167475714580904e-02,-2.285525493061014643e-02,-2.171113055766007993e-02,-2.003595672781608231e-02,-1.795267969591873153e-02,-1.561482766751400020e-02,-1.318905843693920707e-02,-1.083944991065275212e-02,-8.714965230413576971e-03,-6.939007668440183053e-03,-5.599510463570111368e-03,-4.739870076833750494e-03,-4.353003214530418857e-03,-4.381010160708270762e-03,-4.721622546626897364e-03,-5.240835200864006095e-03,-5.789444675570500944e-03,-6.220392807224564037e-03,-6.404576822696317687e-03,-6.244251148926908274e-03,-5.683335389077184829e-03,-4.713005804500885326e-03,-3.371188864546340990e-03,-1.736334277754895223e-03,8.287485896173337179e-05,1.959917064409341832e-03,3.762752412187264205e-03,5.364236000321296466e-03,6.650466725189109127e-03,7.528558112167532505e-03,7.934909121499569493e-03,7.842872010384716389e-03,7.267377951509159002e-03,6.265020021623863775e-03,4.929605169664209863e-03,3.383651332806188964e-03,1.766506539603923329e-03,2.203363269425188606e-04,-1.124541812061911807e-03,-2.163634323053641347e-03,-2.830078310498240594e-03,-3.102572010061221009e-03,-3.007970009040327516e-03,-2.617817247230314927e-03,-2.039104172586619391e-03,-1.400777948908110042e-03,-8.387087259372661037e-04,-4.819965259934134820e-04,-4.421603419042857350e-04,-8.047010795940572623e-04,-1.621756219174838023e-03,-2.906021047534853175e-03,-4.627880966676802856e-03,-6.717416961001327486e-03,-9.071194392883574070e-03,-1.156245713747561070e-02,-1.405295002120425171e-02,-1.640484756472837188e-02,-1.849228727845281250e-02,-2.021299494772288777e-02,-2.149983089581654003e-02,-2.233001066372498553e-02,-2.272890106015607731e-02,-2.276695445032016207e-02,-2.255074520118556872e-02,-2.221057649482053795e-02,-2.188757025340334547e-02,-2.172227009072084242e-02,-2.184476764110010114e-02,-2.236481806168453060e-02,-2.336080549813586080e-02,-2.486833330648994742e-02,-2.687093040108283135e-02,-2.929591625127094326e-02,-3.201790692147740008e-02,-3.487055232738763694e-02,-3.766422691037244613e-02,-4.020566256453033532e-02,-4.231634423339106915e-02,-4.384847128172954245e-02,-4.469823796007178773e-02,-4.481569509485616026e-02,-4.420969599410644324e-02,-4.294654500836170286e-02,-4.114199688309438246e-02,-3.894765058944329311e-02,-3.653407234651376290e-02,-3.407353650201554174e-02,-3.172469522697670546e-02,-2.962022286867363810e-02,-2.785742945599358616e-02,-2.649166363327423029e-02,-2.553285070649831401e-02,-2.494596685406457945e-02,-2.465610558403272257e-02,-2.455785915646393688e-02,-2.452739756865886592e-02,-2.443503409494808890e-02,-2.415695285445145293e-02,-2.358621985971146723e-02,-2.264342306712946451e-02,-2.128607759500644042e-02,-1.951501235341107296e-02,-1.737624532670263566e-02,-1.495774950792187405e-02,-1.238167163841112292e-02,-9.793719732536433631e-03,-7.351543838392444324e-03,-5.212611732492091095e-03,-3.520752307103552480e-03,-2.390960164180263268e-03,-1.894162448943047250e-03,-2.045523769084034351e-03,-2.799791070436382680e-03,-4.055267077401949853e-03,-5.665510542101909706e-03,-7.455930087046203081e-03,-9.241964224273370790e-03,-1.084676151702097975e-02,-1.211793416091041034e-02,-1.294323948739821255e-02,-1.326364028072511865e-02,-1.308074053718300163e-02,-1.245589258368927886e-02,-1.150053253637561314e-02,-1.036014467367999368e-02,-9.195829940699722094e-03,-8.166843261004180093e-03,-7.415601116735052144e-03,-7.055315887120380131e-03,-7.160381400386602729e-03,-7.760322009421287588e-03,-8.838352154386127854e-03,-1.033490105748467031e-02,-1.215548549399409622e-02,-1.418156210623802357e-02,-1.628253756194653415e-02,-1.832748090158307919e-02,-2.019605789880871832e-02,-2.178837175226360987e-02,-2.303260506504715283e-02,-2.388918032058950577e-02,-2.435121018027042519e-02,-2.444203614849803710e-02,-2.421069661942959819e-02,-2.372610556863587877e-02,-2.307117529545303983e-02,-2.233790631171200455e-02,-2.162301344068116860e-02,-2.102219192737160222e-02,-2.062117541279164315e-02,-2.048387388190844871e-02,-2.064058152956478251e-02,-2.108001259532008009e-02,-2.174769534042865493e-02,-2.255164899623130978e-02,-2.337464596852248389e-02,-2.409075467027431069e-02,-2.458310650549123261e-02,-2.476023631801968494e-02,-2.456906038502049833e-02,-2.400274435339927459e-02,-2.310184152416466102e-02,-2.194813942989102748e-02,-2.065239074354699791e-02,-1.933859539668668012e-02,-1.812832521872295016e-02,-1.712823368322881692e-02,-1.642197778553064827e-02,-1.606544354204984121e-02,-1.608343282194033691e-02,-1.646723021219436561e-02,-1.717404360367658089e-02,-1.812982682342075685e-02,-1.923630947128432411e-02,-2.038118920179880778e-02,-2.144855691316584559e-02,-2.232713595532888687e-02,-2.291661339833494376e-02,-2.313403403967164915e-02,-2.292134300270362579e-02,-2.225316373184375515e-02,-2.114275143073806804e-02,-1.964431765638369534e-02,-1.785064306779145585e-02,-1.588534757201763223e-02,-1.389005662612579663e-02,-1.200835862547490647e-02,-1.036958583631843872e-02,-9.075128238977705694e-03,-8.188929667049683891e-03,-7.732859440876788983e-03,-7.687034616401188479e-03,-7.994874250439768654e-03,-8.572239733848576251e-03,-9.319078868811747976e-03,-1.013106131180608639e-02,-1.090881925646299509e-02,-1.156407875593531455e-02,-1.202405488266876030e-02,-1.223593688046341679e-02,-1.217165400542910038e-02,-1.183120971197233230e-02,-1.124252799509619510e-02,-1.045704751941296286e-02,-9.542152098861035603e-03,-8.572846812852969248e-03,-7.624954632782391349e-03,-6.770259607383206056e-03,-6.071911236759969417e-03,-5.578197943621075391e-03,-5.314686088922500329e-03,-5.276702319905809610e-03,-5.424773906146451198e-03,-5.685272844022117716e-03,-5.957414736896321159e-03,-6.125659855267852512e-03,-6.074497125685037781e-03,-5.702393146795471657e-03,-4.933198000076291154e-03,-3.724578102629449734e-03,-2.073154909564497300e-03,-1.581238226438205806e-05,2.373167849507422985e-03,4.989110841284160117e-03,7.707340887708800589e-03,1.039489656943375605e-02,1.292099881038855612e-02,1.516529331781451065e-02,1.702503440983852215e-02,1.842273463914473677e-02,1.931440316557474571e-02,1.969689000959560718e-02,1.961192316766561042e-02,1.914449721381636729e-02,1.841478242486027650e-02,1.756516808529699422e-02,1.674551725207344688e-02,1.609892268593473078e-02,1.574828607950207182e-02,1.578321538374468855e-02,1.624805653521708623e-02,1.713375315867073437e-02,1.837642167575864044e-02,1.986383490399500074e-02,2.144878412554591940e-02,2.296673640279574963e-02,2.425488238523502635e-02,2.517040313108347832e-02,2.560675846289000093e-02,2.550705928373277198e-02,2.487301457938316876e-02,2.376768985427955491e-02,2.231103924097074115e-02,2.066816098540922436e-02,1.903124830196303158e-02,1.759765669420760431e-02,1.654763534808365716e-02,1.602491766134498882e-02,1.612183804550746183e-02,1.686943303774024461e-02,1.823294597119413246e-02,2.011352071783374662e-02,2.235672356923148682e-02,2.476803852253687058e-02,2.713448287157251004e-02,2.924943265494774416e-02,3.093590846251671744e-02,3.206407734665103065e-02,3.256126636424681170e-02,3.241505076091606014e-02,3.167072453474362864e-02,3.042427762067860877e-02,2.881176323813398887e-02,2.699587232180094415e-02,2.515077453560935275e-02,2.344690156348329044e-02,2.203761632332475531e-02,2.104883899822786522e-02,2.057125435518944098e-02,2.065418372459082788e-02,2.130113458840353011e-02,2.246827483683760951e-02,2.406710961481383498e-02,2.597149143435157487e-02,2.802797325874198386e-02,3.006822554404708914e-02,3.192269801183523353e-02,3.343524960636459764e-02,3.447833685488157357e-02,3.496725988090255977e-02,3.487064133633879098e-02,3.421437199146080271e-02,3.307819567705454905e-02,3.158602295698472590e-02,2.989153299765820102e-02,2.816075970756247784e-02,2.655397131895577759e-02,2.520918091957315491e-02,2.422864208837552727e-02,2.366897443258713860e-02,2.353594498241495803e-02,2.378527810928121600e-02,2.432992667769228595e-02,2.505263999834880101e-02,2.582159354429106046e-02,2.650644132568798564e-02,2.699238264460959366e-02,2.719085652769123729e-02,2.704672677349823431e-02,2.654227151367481372e-02,2.569778517261797623e-02,2.456829118832315126e-02,2.323660243574285703e-02,2.180393578349573008e-02,2.037959931445794751e-02,1.907126014613082926e-02,1.797702151953217004e-02,1.717945765310392378e-02,1.674051077007029931e-02,1.669627550762672885e-02,1.705225583672403261e-02,1.778080139637502541e-02,1.882189522631074266e-02,2.008739951922150144e-02,2.146835337195764082e-02,2.284436700468627651e-02,2.409357140051875470e-02,2.510195551112756607e-02,2.577190836762404888e-02,2.603004421619240991e-02,2.583375981709715510e-02,2.517559403682621821e-02,2.408491194771714139e-02,2.262677139720520314e-02,2.089755190574850430e-02,1.901716717174111587e-02,1.711874092230737318e-02,1.533701555085458489e-02,1.379607910009731341e-02,1.259685787134741039e-02,1.180586216076644906e-02,1.144732343674730903e-02,1.150026630058851272e-02,1.190120057269185988e-02,1.255227785965258754e-02,1.333340141862802801e-02,1.411590380521770757e-02,1.477626575208675769e-02,1.520971428642239713e-02,1.534327642933418570e-02,1.514620596920102959e-02,1.463492124181452539e-02,1.387090487997237782e-02,1.295214420070915119e-02,1.199995336950746526e-02,1.114340217699915335e-02,1.050361525229876261e-02,1.017966025223645925e-02,1.023677292232738623e-02,1.069737626280948921e-02,1.153604193335094896e-02,1.267995535206984346e-02,1.401562080150767393e-02,1.540116251240913718e-02,1.668246322294733922e-02,1.771047511356932738e-02,1.835680280914634907e-02,1.852581983332007159e-02,1.816323708814392840e-02,1.726150957748074158e-02,1.586163801918048788e-02,1.405032927825775220e-02,1.195212671727302438e-02,9.717216268818862010e-03,7.506247036487848079e-03,5.474143804279867423e-03,3.755640651644335908e-03,2.454850484883737503e-03,1.639313335380849493e-03,1.337360978254840526e-03,1.537631263870444399e-03,2.190506508125560341e-03,3.211803392998605934e-03,4.488900247319091950e-03,5.889107324920895073e-03,7.269742210110578286e-03,8.489250158877262309e-03,9.418887367887046266e-03,9.954575435708178099e-03,1.002811542198156838e-02,9.616160850922424869e-03,8.744812217354935510e-03,7.488070281745394692e-03,5.959842710163306551e-03,4.301059993849011207e-03,2.664616454428766611e-03,1.200707265291547704e-03,4.393051320147114822e-05,-6.978187173563782982e-04,-9.529677136627722010e-04,-6.937716962874730274e-04,5.982782560999614214e-05,1.241260391410473800e-03,2.743710759226098556e-03,4.431437350498621322e-03,6.154512345727959285e-03,7.764458923119382273e-03,9.128533433467879085e-03,1.014173449253920681e-02,1.073658436677991934e-02,1.089058602538033049e-02,1.063052001367697369e-02,1.003233062753880293e-02,9.215853041909765134e-03,8.334914734964126576e-03,7.564431798137761544e-03,7.086073184608554162e-03,7.073099700745041213e-03,7.674356587488149507e-03,8.998224508285296644e-03,1.109914743608583255e-02,1.397014882698286407e-02,1.754336475475785917e-02,2.169812402804304971e-02,2.627415991504436499e-02,3.108696580623472594e-02,3.594314633186257435e-02,4.065515697966535363e-02,4.505575283210837279e-02,4.901192751753634391e-02,5.243671923803681911e-02,5.529647394640484909e-02,5.761178665856530462e-02,5.945202654552406846e-02,6.092505729762692779e-02,6.216428127348301580e-02,6.331424430017544569e-02,6.451503961622163941e-02,6.588587605906909284e-02,6.750936197354168167e-02,6.941931081861382746e-02,7.159499006829340984e-02,7.396341148717540392e-02,7.640955531832151204e-02,7.879302454880990347e-02,8.096815326215772712e-02,8.280357501139545828e-02,8.419796910012364299e-02,8.509069712539246710e-02,8.546752932908431577e-02,8.536185481583573320e-02,8.485155937713273477e-02,8.405188694796608684e-02,8.310447119602756838e-02,8.216262504576798964e-02,8.137423322498514577e-02,8.086521914904508390e-02,8.072637743595079129e-02,8.100451441339459602e-02,8.169727323071915293e-02,8.275120109505652854e-02,8.406400603568701946e-02,8.549270037982872883e-02,8.686851180614710288e-02,8.801730496372087154e-02,8.878164423211114265e-02,8.903936942590455483e-02,8.871508726382339172e-02,8.778407443168922963e-02,8.627011083025160065e-02,8.423896203465312815e-02,8.178886094747890578e-02,7.903935100674358560e-02,7.612007697558079156e-02,7.316097879389420189e-02,7.028458322790795409e-02,6.760000905041317620e-02,6.519755809399986612e-02,6.314288229437345357e-02,6.147088321189717736e-02,6.018102240564755789e-02,5.923605896283888617e-02,5.856504988543830698e-02,5.807023250656255520e-02,5.763677667404506350e-02,5.714372110355133566e-02,5.647418573408023723e-02,5.552392324819136610e-02,5.420841654270652094e-02,5.246874919271016235e-02,5.027565839830445971e-02,4.763079437954337303e-02,4.456487589228225188e-02,4.113342103699379332e-02,3.741118385958732556e-02,3.348631917075444581e-02,2.945483199963200641e-02,2.541513175151374065e-02,2.146182603430044772e-02,1.767803883887267280e-02,1.412697604870425533e-02,1.084497989605527450e-02,7.838281760226996700e-03,5.084329176256487982e-03,2.537182351596225897e-03,1.356243596985310393e-04,-2.187541340008158659e-03,-4.496101049847852152e-03,-6.841509150257637020e-03,-9.254885840898082958e-03,-1.174078094778125032e-02,-1.427385059931484540e-02,-1.679925901202054470e-02,-1.923711703939825352e-02,-2.149090626849124719e-02,-2.345891361873876299e-02,-2.504658697366493950e-02,-2.617802851820451651e-02,-2.680628098891408434e-02,-2.692242594852965049e-02,-2.656231242220111546e-02,-2.580891776843454236e-02,-2.478899649201079386e-02,-2.366371153721819401e-02,-2.261382956912299028e-02,-2.182151211845428235e-02,-2.145194468369738747e-02,-2.163726573493999703e-02,-2.246321289537562757e-02,-2.395806385741207009e-02,-2.608466619639479567e-02,-2.873818537300823484e-02,-3.175274966871649562e-02,-3.491855658380574323e-02,-3.800741615216673974e-02,-4.080089450996076533e-02,-4.311440150765283308e-02,-4.481372306574688685e-02,-4.582438368683436347e-02,-4.613550811467763413e-02,-4.579876945203041616e-02,-4.492186531791877296e-02,-4.365630226124491559e-02,-4.218079638424863248e-02,-4.068290030182219325e-02,-3.934170560455370336e-02,-3.831377307250042469e-02,-3.772295681648263344e-02,-3.765311745781494551e-02,-3.814251733188107896e-02,-3.918042702375550135e-02,-4.070788811184186673e-02,-4.262372873310148885e-02,-4.479499526740743365e-02,-4.707007445296805537e-02,-4.929304476087018744e-02,-5.131820406697790160e-02,-5.302414196802403973e-02,-5.432721989991096123e-02,-5.519402103887649513e-02,-5.565086574819828880e-02,-5.578736324481877590e-02,-5.575167862621907555e-02,-5.573710192026425092e-02,-5.596131941093505924e-02,-5.664125668825925608e-02,-5.796719029841697346e-02,-6.007925374579489719e-02,-6.304772613752786248e-02,-6.685728929076627247e-02,-7.139638170212578294e-02,-7.645501683169747542e-02,-8.173508655122456446e-02,-8.687482014061427560e-02,-9.148494286690520005e-02,-9.519045708462099686e-02,-9.767104133913862007e-02,-9.869531711911148919e-02,-9.814726289846277540e-02,-9.604387696329998170e-02,-9.254186366382860518e-02,-8.793061155606252122e-02,-8.261060088485035202e-02,-7.705868537970542165e-02,-7.178284929184443330e-02,-6.727031510184836027e-02,-6.393516711879396186e-02,-6.207302047162487069e-02,-6.182834469414554002e-02,-6.317571332734592260e-02,-6.591301024650740581e-02,-6.966420575165220563e-02,-7.389057535884752115e-02,-7.791114201030063802e-02,-8.093516616805723762e-02,-8.211019167157611320e-02,-8.058704841927730178e-02,-7.559883596960960406e-02,-6.654622576235109943e-02,-5.307780757895344537e-02,-3.515269958169989217e-02,-1.307520929787802343e-02,1.250204656168986579e-02,4.060391493525201262e-02,6.998273532136928266e-02,9.918915904927438909e-02,1.266615797747496219e-01,1.508318918604657222e-01,1.702434569129206432e-01,1.836736094744629011e-01,0.000000000000000000e+00,0.000000000000000000e+00,0.000000000000000000e+00,0.000000000000000000e+00,0.000000000000000000e+00,0.000000000000000000e+00,0.000000000000000000e+00,0.000000000000000000e+00,0.000000000000000000e+00,0.000000000000000000e+00,0.000000000000000000e+00,0.000000000000000000e+00,0.000000000000000000e+00,0.000000000000000000e+00,0.000000000000000000e+00,0.000000000000000000e+00,0.000000000000000000e+00,0.000000000000000000e+00,0.000000000000000000e+00,0.000000000000000000e+00,0.000000000000000000e+00,0.000000000000000000e+00,0.000000000000000000e+00,0.000000000000000000e+00,0.000000000000000000e+00,0.000000000000000000e+00,0.000000000000000000e+00,0.000000000000000000e+00,0.000000000000000000e+00,0.000000000000000000e+00,0.000000000000000000e+00,0.000000000000000000e+00,0.000000000000000000e+00,0.000000000000000000e+00,0.000000000000000000e+00,0.000000000000000000e+00,0.000000000000000000e+00,0.000000000000000000e+00,0.000000000000000000e+00,0.000000000000000000e+00,0.000000000000000000e+00,0.000000000000000000e+00,0.000000000000000000e+00,0.000000000000000000e+00,0.000000000000000000e+00,0.000000000000000000e+00,0.000000000000000000e+00,0.000000000000000000e+00,0.000000000000000000e+00,0.000000000000000000e+00,0.000000000000000000e+00,0.000000000000000000e+00,0.000000000000000000e+00,0.000000000000000000e+00
1.902488032556733932e-01,1.895379278181981431e-01,1.816098321893909462e-01,1.670439358949008246e-01,1.468876481872525286e-01,1.225617156159789639e-01,9.572353406137623644e-02,6.810619945000856434e-02,4.135507627183161727e-02,1.688305785910613685e-02,-4.238617653004600992e-03,-2.134377408350192351e-02,-3.418573634031946140e-02,-4.290526448540307736e-02,-4.795913431299238944e-02,-5.002088458780181573e-02,-4.986797390117134882e-02,-4.826976670997929625e-02,-4.588934380731307661e-02,-4.321006855848168876e-02,-4.049544016141155833e-02,-3.778784777922843813e-02,-3.494713814108224570e-02,-3.172231930791741261e-02,-2.784104401980952437e-02,-2.309614618598425720e-02,-1.740958152587850777e-02,-1.086117409743340978e-02,-3.679860378936476023e-03,3.794784132166184078e-03,1.116640377626220565e-02,1.803574756563781217e-02,2.404369847019119377e-02,2.890004893050473686e-02,3.240025610314699323e-02,3.443312000962379243e-02,3.498041778400139135e-02,3.410898868788538735e-02,3.195703261115850902e-02,2.871729312745098170e-02,2.461951806507474069e-02,1.991404698012612384e-02,1.485776140583982066e-02,9.702410740285254825e-03,4.684301930022962378e-03,1.478315587970843031e-05,-4.127866073502355244e-03,-7.604398939516458615e-03,-1.031880223180284446e-02,-1.222196040442160604e-02,-1.331534254966139710e-02,-1.365358570512385447e-02,-1.334367333925243204e-02,-1.253846733297172764e-02,-1.142350007126121357e-02,-1.019814271428085353e-02,-9.054560204653788399e-03,-8.158185653380270116e-03,-7.631679965833309751e-03,-7.542941248596880983e-03,-7.898110633738079228e-03,-8.641310339428836737e-03,-9.662381949929334246e-03,-1.081228009297292847e-02,-1.192393259044283171e-02,-1.283489080802254455e-02,-1.340753271884577609e-02,-1.354358679676742963e-02,-1.319217307470447499e-02,-1.235269176619649412e-02,-1.107385717206953168e-02,-9.448796313794506629e-03,-7.605769749709254818e-03,-5.694928451631393017e-03,-3.872397270163311939e-03,-2.283712342002714585e-03,-1.049229188396810352e-03,-2.536860142831609002e-04,5.960575277811384025e-05,-1.090984075054925303e-04,-7.167065170156488316e-04,-1.680785635900826315e-03,-2.885795192556727968e-03,-4.192077922737643021e-03,-5.447690374875673730e-03,-6.502341004412048008e-03,-7.221539592632862832e-03,-7.498991281765675018e-03,-7.266442520800464946e-03,-6.501230813745845216e-03,-5.231358323222171439e-03,-3.536580097965542468e-03,-1.543639107869317290e-03,5.851147431993582518e-04,2.668716104015709904e-03,4.527394702870704904e-03,6.001496072682660499e-03,6.966583293234406525e-03,7.343780720825800364e-03,7.105970714914245506e-03,6.280219471235036315e-03,4.945557532778632574e-03,3.225299876294213889e-03,1.274834215918510365e-03,-7.329350978356421369e-04,-2.622601006763320385e-03,-4.230644184475051972e-03,-5.418568500656838378e-03,-6.084276126468010117e-03,-6.171100319975700126e-03,-5.673635394457600921e-03,-4.639228192718208160e-03,-3.164137290509452024e-03,-1.384014535844199124e-03,5.405354607683759017e-04,2.441113551904674269e-03,4.158400121372406513e-03,5.556648603871686132e-03,6.535473669197741468e-03,7.039261538758658995e-03,7.063552446322421581e-03,6.656734707568516887e-03,5.915855012900436173e-03,4.976783680345014949e-03,3.999981696914798983e-03,3.153556723690133928e-03,2.595659395223098766e-03,2.458185107844926449e-03,2.833039195437704518e-03,3.761840738352395085e-03,5.230314154692563243e-03,7.168663649325577279e-03,9.458082138717458995e-03,1.194222530493968190e-02,1.444218192268282089e-02,1.677348402616126929e-02,1.876320460507874613e-02,2.026520111190882600e-02,2.117285435418606032e-02,2.142965266577918221e-02,2.103694647362520584e-02,2.005648966903792949e-02,1.860565287474965149e-02,1.684534850517272614e-02,1.496273183596535591e-02,1.315164024914636937e-02,1.159361116973558169e-02,1.044177366151864683e-02,9.809246071406261744e-03,9.762389258335247080e-03,1.031790960841933932e-02,1.144294757664364968e-02,1.305843048586468984e-02,1.504624218448437876e-02,1.725994233407190590e-02,1.953777574678962001e-02,2.171622371252021622e-02,2.364279501651017634e-02,2.518787260579463672e-02,2.625595929727964767e-02,2.679563676819399221e-02,2.680598840817227657e-02,2.633717604671130183e-02,2.548455073745190327e-02,2.437760863388623717e-02,2.316614924555504898e-02,2.200577256587382333e-02,2.104356623418347436e-02,2.040386145823604863e-02,2.017469869368443414e-02,2.039743075356710914e-02,2.106243603746458040e-02,2.211228418491588410e-02,2.345128539871306830e-02,2.495878920365547302e-02,2.650312128045417825e-02,2.795359757136533022e-02,2.918985904413724103e-02,3.010985580074275469e-02,3.063816559619023799e-02,3.073455035759171602e-02,3.040081190581521431e-02,2.968393750059278649e-02,2.867444308262107402e-02,2.749936352898084760e-02,2.631009068864009065e-02,2.526659619676135948e-02,2.452002082258616239e-02,2.419498298718708931e-02,2.437308560287757692e-02,2.508009942151459906e-02,2.627944983617219038e-02,2.787355189009661782e-02,2.971311070663695472e-02,3.161304993575296540e-02,3.337226451636904345e-02,3.479365214392875910e-02,3.570181322654419898e-02,3.595791138081664423e-02,3.547232242977277350e-02,3.421470850913142792e-02,3.221958867886564465e-02,2.958532261632431173e-02,2.646550348454357326e-02,2.305311848113147932e-02,1.955955805109409196e-02,1.619221447262056413e-02,1.313436877440839375e-02,1.052918255983729436e-02,8.468124162351165982e-03,6.984346959815120395e-03,6.052006942569806459e-03,5.591886925898643251e-03,5.482532354096343423e-03,5.575185007202086013e-03,5.710039998623561534e-03,5.731093782121099260e-03,5.498030622002648277e-03,4.895785494636107835e-03,3.843443767115038798e-03,2.302641033620024102e-03,2.832756375250344329e-04,-2.155961843217591746e-03,-4.912770154669963800e-03,-7.850900144881949386e-03,-1.081289190411906936e-02,-1.363490305541470958e-02,-1.616267905847450920e-02,-1.826738654469076475e-02,-1.985947463171212901e-02,-2.089813728148289321e-02,-2.139409808624979231e-02,-2.140487303981342473e-02,-2.102360360223110361e-02,-2.036397742703647054e-02,-1.954468436694941150e-02,-1.867690822831055350e-02,-1.785634642989647469e-02,-1.715814899847889832e-02,-1.663221857671425344e-02,-1.629842028859454506e-02,-1.614362124168157095e-02,-1.612274525849918122e-02,-1.616463544507722866e-02,-1.618184805057242687e-02,-1.608222141378999950e-02,-1.577973806496368869e-02,-1.520334842288769729e-02,-1.430405940680258559e-02,-1.306073828721225454e-02,-1.148373854315084056e-02,-9.614905080142673727e-03,-7.523761558219962779e-03,-5.301005773690895331e-03,-3.050590144266741074e-03,-8.813721815740776632e-04,1.100927072041467869e-03,2.801203544722317539e-03,4.142128927291358412e-03,5.071192348620307509e-03,5.567203380722362226e-03,5.645224212353159264e-03,5.358961533173235356e-03,4.799974978080301033e-03,4.092929866765303987e-03,3.386136899906587710e-03,2.837682157763993501e-03,2.598903642093633969e-03,2.797475538159341097e-03,3.521997101984145322e-03,4.809888300943917366e-03,6.640570437644451214e-03,8.935356019788258039e-03,1.156412409460978730e-02,1.435749657333730209e-02,1.712246842933791424e-02,1.965956609568367958e-02,2.178026651395527369e-02,2.332387363076145192e-02,2.417297697286292096e-02,2.426606324417683591e-02,2.360537243362906268e-02,2.225845416421796258e-02,2.035288322618521509e-02,1.806449886346047154e-02,1.560037019192587159e-02,1.317861172163383408e-02,1.100766581039363742e-02,9.267223096667689258e-03,8.091988564662215902e-03,7.559279476116989929e-03,7.682123505907326351e-03,8.409537698271572423e-03,9.634433456536108803e-03,1.120813723052734891e-02,1.295920211228798573e-02,1.471312700939944942e-02,1.630972472668569193e-02,1.761637429142525607e-02,1.853704776349312730e-02,1.901772741406351427e-02,1.904862973009348315e-02,1.866308871077186973e-02,1.793256072447592733e-02,1.695762523905536973e-02,1.585621726178833291e-02,1.475146120451406757e-02,1.376097591339653370e-02,1.298769541237732895e-02,1.251098685215441819e-02,1.237762672681730521e-02,1.259432478297263687e-02,1.312448492353630349e-02,1.389065908123446845e-02,1.478230363448131482e-02,1.566737251425231320e-02,1.640576964104294502e-02,1.686270992711259853e-02,1.692082105637733938e-02,1.649075887776957350e-02,1.552039703448332419e-02,1.400234478691355505e-02,1.197914841447010603e-02,9.544921706578156709e-03,6.841507931017597362e-03,4.047999130264211785e-03,1.364680997336645187e-03,-1.006085294020490342e-03,-2.880194812375887030e-03,-4.112450549270845954e-03,-4.615776328213723814e-03,-4.375273899087838737e-03,-3.452934535746472310e-03,-1.980751452173789944e-03,-1.430088444252523752e-04,1.848568285082553570e-03,3.781218021180834683e-03,5.463929338708146781e-03,6.744156756279888823e-03,7.518701392929601213e-03,7.739585726263745538e-03,7.414851221821890798e-03,6.603973557245161434e-03,5.408500275171325075e-03,3.959315389890573529e-03,2.402249916496874884e-03,8.840157568756319782e-04,-4.598961255070896956e-04,-1.515154498647148205e-03,-2.197417861925604361e-03,-2.460386408214371764e-03,-2.301264796347900730e-03,-1.760902970863456639e-03,-9.174307231291276531e-04,1.251022756164115932e-04,1.249656786011470785e-03,2.337526431699295595e-03,3.277283129906786475e-03,3.972901495339918425e-03,4.352281324166586314e-03,4.374834740245107587e-03,4.035317762460508863e-03,3.362544170374394577e-03,2.414096426064169312e-03,1.269120753117308200e-03,2.080006535293172927e-05,-1.230903878610160743e-03,-2.386680015578811209e-03,-3.356114006865251742e-03,-4.066459118622761486e-03,-4.470594686728310112e-03,-4.552541271880056889e-03,-4.329318515350640169e-03,-3.848626517302189756e-03,-3.182567457129601395e-03,-2.418581241137991028e-03,-1.649641393683208513e-03,-9.655368984346364945e-04,-4.456710714465816924e-04,-1.527238296056968644e-04,-1.269261953796980134e-04,-3.817276313611177373e-04,-9.017619138566498058e-04,-1.643407670353902320e-03,-2.537847635704203447e-03,-3.496162076456259000e-03,-4.415542058555613214e-03,-5.186085358621736474e-03,-5.698851034046477880e-03,-5.856393377340257667e-03,-5.585667923220118299e-03,-4.850598174861333982e-03,-3.660129919193827637e-03,-2.069242036575327185e-03,-1.738444433831931005e-04,1.897547693382656709e-03,3.993453433962430334e-03,5.950747457874329752e-03,7.609049045056378441e-03,8.828329323345750559e-03,9.507578636945282144e-03,9.600726385926513368e-03,9.125802368412119087e-03,8.164585590894016254e-03,6.852335593833336000e-03,5.359777523049163474e-03,3.871136681467268314e-03,2.561910498497744094e-03,1.578717604791932128e-03,1.022539620076275526e-03,9.368761520761597229e-04,1.302969020325400176e-03,2.043856279773203881e-03,3.037030579184419633e-03,4.132771390435028419e-03,5.173485391298544150e-03,6.009967925184570188e-03,6.513295674962684377e-03,6.583971956963738381e-03,6.160257133129571315e-03,5.225350531165371369e-03,3.811331265324045554e-03,1.998347884431068457e-03,-9.099914271098043066e-05,-2.301559483319816791e-03,-4.459235579299040790e-03,-6.387237409184047358e-03,-7.923493025782124902e-03,-8.937919564571307138e-03,-9.348453173194664831e-03,-9.134104071218802218e-03,-8.342315913713904338e-03,-7.087737078764452629e-03,-5.540745001254880446e-03,-3.906576951129578888e-03,-2.399004051419077483e-03,-1.214431203750750837e-03,-5.113873714293178325e-04,-3.971291825610126654e-04,-9.203728627057674227e-04,-2.068961921436051395e-03,-3.772369431630117741e-03,-5.909261201340641929e-03,-8.319860703325094448e-03,-1.082229610599622256e-02,-1.323136564476501929e-02,-1.537725241063303203e-02,-1.712137431215368655e-02,-1.836734735100346155e-02,-1.906669636377113924e-02,-1.922031815280150074e-02,-1.887675433540384959e-02,-1.812728571383274978e-02,-1.709705158432058697e-02,-1.593203202582206893e-02,-1.478348665455522272e-02,-1.379257925802561228e-02,-1.307739881416048779e-02,-1.272324586055377342e-02,-1.277627712059771319e-02,-1.324074675836678198e-02,-1.408024394823567151e-02,-1.522271075168710013e-02,-1.656822916005176033e-02,-1.799845847983321673e-02,-1.938687800585570456e-02,-2.060912083884753818e-02,-2.155304109819253244e-02,-2.212886993791501888e-02,-2.227971045090192809e-02,-2.199104187796446785e-02,-2.129651342803296626e-02,-2.027775704234142592e-02,-1.905741050575322088e-02,-1.778593697113895616e-02,-1.662452849655645520e-02,-1.572780562315264502e-02,-1.522931698343913016e-02,-1.523016505581374636e-02,-1.578928361451999510e-02,-1.691504043880542180e-02,-1.856030297779285784e-02,-2.062360211180098296e-02,-2.295720701319832122e-02,-2.538109040809802264e-02,-2.770081006996159140e-02,-2.972657893225673365e-02,-3.129067205386794337e-02,-3.226156147135161856e-02,-3.255467705655790828e-02,-3.213997319432858324e-02,-3.104581280097162485e-02,-2.935809555929341785e-02,-2.721343552837047000e-02,-2.478588433952510356e-02,-2.226849894510907896e-02,-1.985293155017117325e-02,-1.771053207521301395e-02,-1.597705923770633904e-02,-1.474156933621324078e-02,-1.403981695358116899e-02,-1.385301727211937957e-02,-1.411256394544182884e-02,-1.471026861550332396e-02,-1.551281901171602112e-02,-1.637839624256937771e-02,-1.717270325288447128e-02,-1.778195250262547614e-02,-1.812189135312212290e-02,-1.814339798188513084e-02,-1.783524573741059049e-02,-1.722378041861805792e-02,-1.636902641791167928e-02,-1.535728053930921454e-02,-1.429079488062212286e-02,-1.327603808773578954e-02,-1.241303035276258501e-02,-1.178761319405310058e-02,-1.146626360222854739e-02,-1.149170437168427900e-02,-1.187855703279118783e-02,-1.261029312304929456e-02,-1.363947996903419960e-02,-1.489214242758319512e-02,-1.627527310846763400e-02,-1.768551487648138687e-02,-1.901721688735939081e-02,-2.016923258114473178e-02,-2.105131460513662289e-02,-2.159156065403230323e-02,-2.174527444734541959e-02,-2.150353533654171534e-02,-2.089842655695013304e-02,-2.000219505596275912e-02,-1.891933797736016984e-02,-1.777321507309352275e-02,-1.669100636330972040e-02,-1.579069463945907345e-02,-1.517134472124986692e-02,-1.490584853988051635e-02,-1.503513127399736318e-02,-1.556372961082830818e-02,-1.645740464680827200e-02,-1.764390127495429200e-02,-1.901808479403076929e-02,-2.045181497192891107e-02,-2.180710411313487029e-02,-2.294980131345580876e-02,-2.376154462337359830e-02,-2.414951700087282840e-02,-2.405469255139589674e-02,-2.345863757910683634e-02,-2.238759515236118589e-02,-2.091221173339820327e-02,-1.914216601795535808e-02,-1.721629907097003281e-02,-1.528975372154671962e-02,-1.351970809538074851e-02,-1.205075131555106635e-02,-1.100050683301067797e-02,-1.044636613839100212e-02,-1.041494645604659069e-02,-1.087629202861581032e-02,-1.174457155383882775e-02,-1.288629325631696944e-02,-1.413567792096010953e-02,-1.531491503355717626e-02,-1.625572173915603227e-02,-1.681874040318936253e-02,-1.690839151469927110e-02,-1.648176932709424433e-02,-1.555054185828302730e-02,-1.417542429968673794e-02,-1.245422653299287780e-02,-1.050573778861424966e-02,-8.452126619111354974e-03,-6.402577677017097339e-03,-4.440450721935353812e-03,-2.614959817954463743e-03,-9.370757187301811605e-04,6.208780243252834874e-04,2.122034002891882553e-03,3.658275467979370862e-03,5.340354720339769018e-03,7.285262082168753386e-03,9.601965605448344737e-03,1.237795215581812686e-02,1.566917319366372199e-02,1.949444632915217288e-02,2.383372561132191328e-02,2.862935981112573261e-02,3.379013629047995099e-02,3.919814622199004756e-02,4.471777979120985375e-02,5.020545151221889046e-02,5.551865140902875750e-02,6.052323750414402570e-02,6.509854118249588928e-02,6.914107569921888741e-02,7.256844621161316622e-02,7.532446958640134915e-02,7.738528613683583190e-02,7.876542101622564795e-02,7.952210077317543868e-02,7.975588546129205869e-02,7.960681820250976870e-02,7.924673261610865049e-02,7.886794114044498594e-02,7.866723407925502176e-02,7.882488068710130635e-02,7.948128517637359503e-02,8.071640092619658535e-02,8.253689457795793105e-02,8.487368430153516274e-02,8.758960414332467304e-02,9.049497833830948135e-02,9.336810634351426497e-02,9.597778377189736254e-02,9.810564253256809364e-02,9.956675509293819171e-02,1.002271841446763651e-01,1.000171430209053636e-01,9.893860202783520685e-02,9.706646446803290917e-02,9.454277274972638923e-02,9.156420769282011540e-02,8.836416094538039612e-02,8.519098686202318527e-02,8.228387841134977843e-02,7.984811539004608993e-02,7.803221322765366286e-02,7.691009000550574903e-02,7.647142929420849833e-02,7.662290367513635569e-02,7.720146435313689215e-02,7.799803861258074178e-02,7.878679842013358581e-02,7.935399044977554939e-02,7.952181499153516964e-02,7.916543953843006853e-02,7.822305447767338715e-02,7.669902150420630782e-02,7.465941716229614056e-02,7.221952740390309711e-02,6.952491757059775512e-02,6.673029050674497697e-02,6.398113493485475811e-02,6.140096190932751302e-02,5.908336349160936418e-02,5.708628660563565965e-02,5.542685852115440681e-02,5.407726690511709122e-02,5.296381850279908987e-02,5.197160870270835231e-02,5.095597193997657842e-02,4.975945573929278082e-02,4.823099298683306002e-02,4.624373977632214444e-02,4.370938610164849109e-02,4.058795334542146527e-02,3.689241484729765402e-02,3.268771008818274065e-02,2.808454860772978748e-02,2.322926439531699042e-02,1.829107214885780652e-02,1.344779746306984033e-02,8.871398516336436238e-03,4.714889027987610379e-03,1.101630123481901931e-03,-1.883046965899118699e-03,-4.198095160330025943e-03,-5.850509221151697914e-03,-6.895705952769058331e-03,-7.433523057812136195e-03,-7.599257093356724148e-03,-7.550366046799674574e-03,-7.450789232897029983e-03,-7.455240451584401948e-03,-7.695408362840124201e-03,-8.269360748817981485e-03,-9.234541032845803091e-03,-1.060379671468281333e-02,-1.234403186514068315e-02,-1.437847030398129236e-02,-1.659413661154193406e-02,-1.885436783007905098e-02,-2.101355052861878653e-02,-2.293100495799325206e-02,-2.448323592387582556e-02,-2.557542407563403661e-02,-2.615206076300334928e-02,-2.620477078880926319e-02,-2.577497395310393222e-02,-2.495012364110613806e-02,-2.385381697525030750e-02,-2.263175885806611651e-02,-2.143676539084290664e-02,-2.041556959680273023e-02,-1.969818916294201541e-02,-1.938881111928323492e-02,-1.955736730991174122e-02,-2.023278534633272258e-02,-2.139990712410455576e-02,-2.300128345541857522e-02,-2.494373138894242711e-02,-2.710843645272201230e-02,-2.936255398554334789e-02,-3.157047958661854392e-02,-3.360428303934824557e-02,-3.535379365735728113e-02,-3.673646925102493077e-02,-3.770596748227191680e-02,-3.825745656677837642e-02,-3.842787297251436252e-02,-3.829071429204108923e-02,-3.794723225823347368e-02,-3.751739397321946640e-02,-3.713287638147024644e-02,-3.693140255647891362e-02,-3.704974619249566670e-02,-3.761372851903179576e-02,-3.872648422708257349e-02,-4.045801208522076253e-02,-4.283829767861884602e-02,-4.585459815390426075e-02,-4.945193611295787411e-02,-5.353492566281402298e-02,-5.796979897342782739e-02,-6.258778391379939132e-02,-6.719234561568589170e-02,-7.157135518661895957e-02,-7.551239789957404913e-02,-7.881821096267910276e-02,-8.132039910640377622e-02,-8.289114049951501473e-02,-8.345321148436130043e-02,-8.298851209345731172e-02,-8.154431441607234987e-02,-7.923506186977151422e-02,-7.623744491387453304e-02,-7.277853653113164345e-02,-6.911935832157661830e-02,-6.553715518196698286e-02,-6.230854410038510344e-02,-5.969358833208013304e-02,-5.791902247063686338e-02,-5.715914616292822048e-02,-5.751589033296274772e-02,-5.900242750217156440e-02,-6.153409875296637216e-02,-6.492675411060014334e-02,-6.889931158963021052e-02,-7.307702188966823387e-02,-7.699447612980961364e-02,-8.010130358126259231e-02,-8.177696319592545060e-02,-8.136169053051599265e-02,-7.820677928335961759e-02,-7.174029459290848232e-02,-6.153806705195817572e-02,-4.738771119409417032e-02,-2.933594715117244026e-02,-7.714654623198046596e-03,1.685443067323978000e-02,4.347510121308630765e-02,7.101228347707153055e-02,9.814938520238639108e-02,1.234676283636411132e-01,1.455438415745610448e-01,1.630594052560213891e-01,1.749110984429628757e-01,0.000000000000000000e+00,0.000000000000000000e+00,0.000000000000000000e+00,0.000000000000000000e+00,0.000000000000000000e+00,0.000000000000000000e+00,0.000000000000000000e+00,0.000000000000000000e+00,0.000000000000000000e+00,0.000000000000000000e+00,0.000000000000000000e+00,0.000000000000000000e+00,0.000000000000000000e+00,0.000000000000000000e+00,0.000000000000000000e+00,0.000000000000000000e+00,0.000000000000000000e+00,0.000000000000000000e+00,0.000000000000000000e+00,0.000000000000000000e+00,0.000000000000000000e+00,0.000000000000000000e+00,0.000000000000000000e+00,0.000000000000000000e+00,0.000000000000000000e+00,0.000000000000000000e+00,0.000000000000000000e+00,0.000000000000000000e+00,0.000000000000000000e+00,0.000000000000000000e+00,0.000000000000000000e+00,0.000000000000000000e+00,0.000000000000000000e+00,0.000000000000000000e+00,0.000000000000000000e+00,0.000000000000000000e+00,0.000000000000000000e+00,0.000000000000000000e+00,0.000000000000000000e+00,0.000000000000000000e+00,0.000000000000000000e+00,0.000000000000000000e+00,0.000000000000000000e+00,0.000000000000000000e+00,0.000000000000000000e+00,0.000000000000000000e+00,0.000000000000000000e+00,0.000000000000000000e+00,0.000000000000000000e+00,0.000000000000000000e+00,0.000000000000000000e+00,0.000000000000000000e+00,0.000000000000000000e+00
1.803138787644132934e-01,1.788845862312027357e-01,1.706945208659916557e-01,1.562800514516821948e-01,1.366048593824186197e-01,1.129740072276152890e-01,8.690810655011943497e-02,5.999441821423714266e-02,3.373710031976542151e-02,9.427922474973097350e-03,-1.194740628625956362e-02,-2.975985264003771363e-02,-4.374348416294695369e-02,-5.396139319876236407e-02,-6.073897791235109006e-02,-6.457554455186585718e-02,-6.604704767691949030e-02,-6.571392027130930347e-02,-6.404739473279993933e-02,-6.138393246513881157e-02,-5.791169085782242598e-02,-5.368823236722208153e-02,-4.868500618561295151e-02,-4.284966614614302977e-02,-3.617256570047377301e-02,-2.874171212280998006e-02,-2.077263362952760928e-02,-1.260518105561951076e-02,-4.667164708300289636e-03,2.586203479232503967e-03,8.740855942552472335e-03,1.348289661536004359e-02,1.663624182301122467e-02,1.817553367037547107e-02,1.821740212543392079e-02,1.699580760899539397e-02,1.482690022931421395e-02,1.206738817177488432e-02,9.070163294606133769e-03,6.142533316950721245e-03,3.513761235928580286e-03,1.317425008504027016e-03,-4.095493503820030255e-04,-1.713483595766387198e-03,-2.701302431130347178e-03,-3.514431429163167829e-03,-4.303575238190550205e-03,-5.206583648779324405e-03,-6.330596776687531964e-03,-7.739737689140984735e-03,-9.449296808790808022e-03,-1.142626244100686424e-02,-1.359530160635238731e-02,-1.584919631429175177e-02,-1.806223389258168263e-02,-2.010395333904824167e-02,-2.185067076828131963e-02,-2.319429354225973489e-02,-2.405006200606911795e-02,-2.436460935068909470e-02,-2.412369113914953483e-02,-2.335735298071774796e-02,-2.214012220251048227e-02,-2.058490026902915285e-02,-1.883142156455145863e-02,-1.703234259390014674e-02,-1.534016750253354086e-02,-1.389573760272911317e-02,-1.281658443735382742e-02,-1.218421570534835956e-02,-1.203246461139234960e-02,-1.234052938542466032e-02,-1.303308283708707292e-02,-1.398792286537624274e-02,-1.505022315351034999e-02,-1.605123063317341614e-02,-1.682853643837946278e-02,-1.724525653954668558e-02,-1.720610857547507852e-02,-1.666862518697164938e-02,-1.564771110641964211e-02,-1.421254416505302563e-02,-1.247652473714556086e-02,-1.058236376699650885e-02,-8.685200737697769749e-03,-6.937086750523960114e-03,-5.475149766642223997e-03,-4.412948755057819090e-03,-3.832609501785991073e-03,-3.776766177093153487e-03,-4.242267861925424349e-03,-5.178445056977992907e-03,-6.491151919132524990e-03,-8.052046121024612410e-03,-9.711655612078541958e-03,-1.131437342163104515e-02,-1.271354595500194876e-02,-1.378521357466173936e-02,-1.443941569875852211e-02,-1.462805414427340370e-02,-1.434828586279704270e-02,-1.364080957599338000e-02,-1.258341782208621112e-02,-1.128117945622509298e-02,-9.855162318633281862e-03,-8.431701641595880370e-03,-7.133378906572973924e-03,-6.071037076701764346e-03,-5.334986368446017514e-03,-4.984731729837403244e-03,-5.039125016225032803e-03,-5.470259363249615168e-03,-6.203848927136758513e-03,-7.127095048802959028e-03,-8.102612431966506323e-03,-8.984838695018069338e-03,-9.635298871040972463e-03,-9.935166303162944884e-03,-9.795468071403114207e-03,-9.165394566933880369e-03,-8.038047425093782644e-03,-6.452108655710635764e-03,-4.488199926917420431e-03,-2.260005887794985791e-03,9.806209673032464805e-05,2.443902317747055630e-03,4.639503994350681337e-03,6.561581206549956316e-03,8.112390091228931233e-03,9.230916726686869134e-03,9.902151749676915693e-03,1.016108702763554757e-02,1.008928806851450491e-02,9.803961490149811289e-03,9.441407630496060494e-03,9.138384604733477967e-03,9.015289444893392207e-03,9.163694057228069512e-03,9.638633332359239705e-03,1.045465162789927828e-02,1.158479489391829598e-02,1.296282475337522978e-02,1.448945234530922208e-02,1.604270957218794161e-02,1.749116037952988534e-02,1.870756097559172701e-02,1.958091324374503298e-02,2.002637924405493638e-02,1.999350091636766316e-02,1.947256683183188827e-02,1.849785360092329883e-02,1.714641790713345923e-02,1.553191794532735905e-02,1.379359500304681505e-02,1.208147390449842290e-02,1.054040514386364244e-02,9.296143701083992711e-03,8.445058062581473068e-03,8.046964015046734892e-03,8.120346106055640473e-03,8.640714662957469164e-03,9.543697434874568938e-03,1.073322971753730946e-02,1.209308722400848947e-02,1.349900663247542015e-02,1.482929447153588653e-02,1.597342282848448689e-02,1.683953360433518634e-02,1.736199741284397136e-02,1.750901425741759054e-02,1.728860132898335164e-02,1.675050001899201085e-02,1.598213463257579584e-02,1.509839251469282696e-02,1.422707177552007089e-02,1.349335349448609576e-02,1.300630791525942027e-02,1.284848245647154073e-02,1.306808036938552318e-02,1.367345462804647575e-02,1.463071147645941469e-02,1.586555317351171987e-02,1.726988148233753878e-02,1.871283364633104934e-02,2.005491218775991291e-02,2.116272765044466264e-02,2.192170011048933179e-02,2.224570044793135193e-02,2.208463295487676087e-02,2.143079479967238340e-02,2.032246234094927870e-02,1.884175906771872258e-02,1.710550590971699619e-02,1.525072737081506653e-02,1.341832636142484790e-02,1.173841551954220991e-02,1.031921823533717662e-02,9.239456074316039491e-03,8.543261373874370609e-03,8.237111325356273259e-03,8.288945192030662892e-03,8.629892502909823279e-03,9.159309312890729846e-03,9.754055573817872749e-03,1.028195715651464108e-02,1.061704824019963668e-02,1.065300290504340996e-02,1.031280130801530762e-02,9.554948326931675048e-03,8.376853264865523688e-03,6.814876090465778191e-03,4.940054243471485307e-03,2.849193995311708784e-03,6.522408099295042179e-04,-1.541766470674035307e-03,-3.636882561494355053e-03,-5.557925750390653279e-03,-7.253373650805837632e-03,-8.695543715226215081e-03,-9.880288716428308263e-03,-1.082683192046755144e-02,-1.157705770773500946e-02,-1.219337792055574451e-02,-1.275461158089057599e-02,-1.334987499971432116e-02,-1.407109512568869777e-02,-1.500481828418540400e-02,-1.622351256697628433e-02,-1.777648795731640724e-02,-1.968141329786176133e-02,-2.191840274952152473e-02,-2.442850189187987034e-02,-2.711725353359761143e-02,-2.986311658760484183e-02,-3.252973060582329407e-02,-3.497952873031383303e-02,-3.708541386403926138e-02,-3.873913751432247338e-02,-3.985801111626378207e-02,-4.039183984934534982e-02,-4.032921730278526962e-02,-3.970018936401899234e-02,-3.857324292930030402e-02,-3.704740336336260348e-02,-3.524230278820408846e-02,-3.328897525704541116e-02,-3.132224407945716910e-02,-2.947343651922473481e-02,-2.786138250923339554e-02,-2.658079947106200061e-02,-2.568948124918040560e-02,-2.519766140982355671e-02,-2.506322002265564883e-02,-2.519501323956895716e-02,-2.546440658054744538e-02,-2.572287111093858256e-02,-2.582211209758392828e-02,-2.563348751138115958e-02,-2.506498951175715334e-02,-2.407497790067938265e-02,-2.268116506784223149e-02,-2.096234833883648882e-02,-1.905084800973660952e-02,-1.711574969022970974e-02,-1.533994194165387570e-02,-1.389616461988602870e-02,-1.292722428432922441e-02,-1.253286920610414620e-02,-1.276260558508001720e-02,-1.361263111716034049e-02,-1.502619499838656579e-02,-1.689796438837993728e-02,-1.908321707435916767e-02,-2.141195103065513666e-02,-2.370628745459059383e-02,-2.579790449424291046e-02,-2.754250316143493776e-02,-2.883022828601685544e-02,-2.959264118319137465e-02,-2.980723051730928275e-02,-2.949965595798408752e-02,-2.874279706482315080e-02,-2.765135242765464837e-02,-2.637149185870400758e-02,-2.506643993383984512e-02,-2.390013349514279184e-02,-2.302134803848653044e-02,-2.254985995558311460e-02,-2.256546730531618083e-02,-2.310077229099575039e-02,-2.413870611125585458e-02,-2.561496177315164199e-02,-2.742462458387165403e-02,-2.943236886244484860e-02,-3.148560056721886463e-02,-3.342891971781070809e-02,-3.511781397263787768e-02,-3.643083960403072780e-02,-3.728095763525545586e-02,-3.762601925615961102e-02,-3.747624011217156464e-02,-3.689534727640961936e-02,-3.599328694317650151e-02,-3.491115201692680109e-02,-3.380172246949210424e-02,-3.281026775229564652e-02,-3.205936109297999326e-02,-3.163921845449120529e-02,-3.160303822829201720e-02,-3.196582920283190521e-02,-3.270518564631300779e-02,-3.376306251482684428e-02,-3.504878989548108198e-02,-3.644474530380593241e-02,-3.781571364683006947e-02,-3.902089155623498368e-02,-3.992617424060791731e-02,-4.041541017366883509e-02,-4.040103285058069260e-02,-3.983454406789298935e-02,-3.871588701558494050e-02,-3.709951566281805002e-02,-3.509474761596881320e-02,-3.285864022657945804e-02,-3.058118340976841501e-02,-2.846466473289614718e-02,-2.670030976255218999e-02,-2.544505557248896363e-02,-2.480051690538245118e-02,-2.479630203423469417e-02,-2.538100513660343158e-02,-2.642455396822894834e-02,-2.773329381244549890e-02,-2.907520983339867415e-02,-3.020976378716453206e-02,-3.091664091403580408e-02,-3.101982824584269272e-02,-3.040584347218991748e-02,-2.903589107315416792e-02,-2.695136119954623724e-02,-2.427168155580907219e-02,-2.118395376601258512e-02,-1.792472090992705200e-02,-1.475495025984232753e-02,-1.193032274047136493e-02,-9.670858292003139609e-03,-8.135461400295706386e-03,-7.405976148513326515e-03,-7.482215983388301739e-03,-8.286938013116827706e-03,-9.679053736301275121e-03,-1.147305229282174002e-02,-1.346172438824496005e-02,-1.543886251777554577e-02,-1.721918042815940436e-02,-1.865326772818929821e-02,-1.963606639414844368e-02,-2.010929527230159025e-02,-2.006042070289183396e-02,-1.952055851845903300e-02,-1.856134604417921524e-02,-1.728930882820256185e-02,-1.583681785140645532e-02,-1.435018256934943344e-02,-1.297663984750569571e-02,-1.185249678942220004e-02,-1.109389715376632099e-02,-1.078978351157557081e-02,-1.099538982869653798e-02,-1.172555547769400797e-02,-1.294931309124473101e-02,-1.458833444541956376e-02,-1.652129016920850235e-02,-1.859472482544972591e-02,-2.063897041785196090e-02,-2.248559964098337596e-02,-2.398284041710780148e-02,-2.500762247614593189e-02,-2.547500466113864978e-02,-2.534561300250479099e-02,-2.463031397535613010e-02,-2.339054626691510277e-02,-2.173302927850944560e-02,-1.979856246223062055e-02,-1.774629799512758566e-02,-1.573661585872604060e-02,-1.391589643065163986e-02,-1.240468582089537808e-02,-1.128897106616342030e-02,-1.061438126578350717e-02,-1.038426722264319986e-02,-1.056243993472619387e-02,-1.107978075412528393e-02,-1.184314281613851362e-02,-1.274533732612675475e-02,-1.367513419934369284e-02,-1.452622257022732899e-02,-1.520487995860885129e-02,-1.563699718532938696e-02,-1.577492506567867298e-02,-1.560356890568077512e-02,-1.514421782920357881e-02,-1.445421861502779737e-02,-1.362116848417543706e-02,-1.275215577871505537e-02,-1.196070206815798287e-02,-1.135457380241645074e-02,-1.102596365110858172e-02,-1.104316258927762542e-02,-1.144225799821729089e-02,-1.221942165637285652e-02,-1.332655471750913458e-02,-1.467290466049261943e-02,-1.613309823571992818e-02,-1.755974951060173747e-02,-1.879808790351200978e-02,-1.970109731600572234e-02,-2.014468652304266319e-02,-2.004204424524172468e-02,-1.935532170877555733e-02,-1.810239043050924229e-02,-1.635695397998802175e-02,-1.424154459163563466e-02,-1.191455632218260327e-02,-9.553789402368857014e-03,-7.339268009734209453e-03,-5.437145727494309584e-03,-3.985124960719342233e-03,-3.079343189413500520e-03,-2.763526503999699704e-03,-3.022279432190874346e-03,-3.780445126553449477e-03,-4.909439702336686022e-03,-6.240102122320854809e-03,-7.580441552150259804e-03,-8.735749712020563287e-03,-9.528232626125853616e-03,-9.814113185947969872e-03,-9.497379990220124885e-03,-8.539405238620758481e-03,-6.962636410422119379e-03,-4.846988761681563299e-03,-2.320159269426169332e-03,4.552251478340954083e-04,3.295625544296667576e-03,6.010973895491506652e-03,8.418616741411439480e-03,1.035615661335250078e-02,1.169327480661157444e-02,1.234257684064639718e-02,1.226829634997191228e-02,1.149083830883081310e-02,1.008573684682623726e-02,8.176917090434485114e-03,5.925172142260453668e-03,3.513382078426429637e-03,1.130042913495742096e-03,-1.047916712872186927e-03,-2.872234533804079483e-03,-4.238593711849970164e-03,-5.097409634284029607e-03,-5.458011670584905772e-03,-5.385827085999985928e-03,-4.993488581175924146e-03,-4.427367802699356397e-03,-3.851524255837618718e-03,-3.431038335264782052e-03,-3.315723919735338691e-03,-3.624448021579108024e-03,-4.430923269703028813e-03,-5.753249573181953500e-03,-7.549897847797338267e-03,-9.723480945819156993e-03,-1.213158082896651987e-02,-1.460241593303554693e-02,-1.695265189366556083e-02,-1.900515313203786708e-02,-2.060555662097685731e-02,-2.163723264085113535e-02,-2.203373921227172808e-02,-2.178684969330872342e-02,-2.094805022724496521e-02,-1.962255641564982639e-02,-1.795659938125531915e-02,-1.612038349253533398e-02,-1.429029053304723199e-02,-1.263350617020614700e-02,-1.129609090618584680e-02,-1.039347785889071195e-02,-1.000232259754672663e-02,-1.015424826429792322e-02,-1.083321355574252444e-02,-1.197754374173043250e-02,-1.348610140080722455e-02,-1.522744951642784894e-02,-1.705123465629572801e-02,-1.880130037410819924e-02,-2.033003852497573469e-02,-2.151334544483574432e-02,-2.226471028355212975e-02,-2.254572714046206017e-02,-2.237029377907446756e-02,-2.180135703021546245e-02,-2.094105110019918101e-02,-1.991663655690188023e-02,-1.886549849880097413e-02,-1.792189673530983351e-02,-1.720623491216827228e-02,-1.681593268794455420e-02,-1.681697180310192524e-02,-1.723651940721342146e-02,-1.805826327336543594e-02,-1.922240777105822807e-02,-2.063169184667783956e-02,-2.216311763604097290e-02,-2.368282779607698563e-02,-2.506071221171485286e-02,-2.618283049329256373e-02,-2.696186405932850597e-02,-2.734621921506617814e-02,-2.732690909716522024e-02,-2.694006677660561871e-02,-2.626354981087473603e-02,-2.540779797814384650e-02,-2.450260083249445470e-02,-2.368250950618249959e-02,-2.307367868677204573e-02,-2.278333602592086393e-02,-2.289115387213736322e-02,-2.344144024100786386e-02,-2.443643593201857631e-02,-2.583264373845198941e-02,-2.754251894543356671e-02,-2.944263607897693730e-02,-3.138718380205816200e-02,-3.322354351144230639e-02,-3.480645198093547388e-02,-3.600922429689802640e-02,-3.673282319718279565e-02,-3.691422898588948148e-02,-3.653449137709869482e-02,-3.562518392475107903e-02,-3.427096456588516610e-02,-3.260620537982252681e-02,-3.080501201904058475e-02,-2.906552627958052318e-02,-2.759014357986875124e-02,-2.656330670838116803e-02,-2.612908799401294710e-02,-2.637199911064738028e-02,-2.730503270810566777e-02,-2.886788302234521292e-02,-3.093596159605278492e-02,-3.333824834326473696e-02,-3.588007820451988295e-02,-3.836623948582042892e-02,-4.062056409503051607e-02,-4.250013902892681855e-02,-4.390426447977817392e-02,-4.477917890242853055e-02,-4.511906883535073826e-02,-4.496309773454345432e-02,-4.438835792685071058e-02,-4.349949559250807646e-02,-4.241651366111804516e-02,-4.126272828163850270e-02,-4.015450649860134724e-02,-3.919298054129457393e-02,-3.845680381491323879e-02,-3.799556743771925066e-02,-3.782506373730419591e-02,-3.792635279176671814e-02,-3.824976443305424384e-02,-3.872333563070098211e-02,-3.926360518190191717e-02,-3.978566685325840568e-02,-4.021004820233627097e-02,-4.046647585397275537e-02,-4.049638171412028170e-02,-4.025509405010260083e-02,-3.971277802811973984e-02,-3.885328155080588347e-02,-3.767190801449520066e-02,-3.617404032495469962e-02,-3.437547012430981069e-02,-3.230373029869632040e-02,-2.999880596960772042e-02,-2.751139949642371005e-02,-2.489757177114950565e-02,-2.221008907291900994e-02,-1.948865122488223009e-02,-1.675230066709022456e-02,-1.399683431111268389e-02,-1.119812329728185792e-02,-8.319709047373877175e-03,-5.321116384519893223e-03,-2.163552783971136716e-03,1.187854156571580477e-03,4.763527008533670337e-03,8.588117504467239829e-03,1.267688258838458454e-02,1.702971547593530588e-02,2.162402799669667364e-02,2.640850647794421718e-02,3.129965949789387941e-02,3.618202183539611511e-02,4.091232555824221573e-02,4.532865853535893857e-02,4.926584124139439524e-02,5.257620319786219382e-02,5.515196555520244376e-02,5.694438998112278522e-02,5.797602726065989587e-02,5.834372715188146374e-02,5.821102603423532890e-02,5.779038401525259799e-02,5.731833557819935449e-02,5.702803634723666026e-02,5.712315724297765962e-02,5.775596405968453501e-02,5.901193958594092015e-02,6.090284059100014441e-02,6.336876766820005724e-02,6.628810950351383957e-02,6.949284515009186702e-02,7.278605400466030273e-02,7.595915835057187593e-02,7.880821260770666525e-02,8.114986720851903590e-02,8.283731067296414008e-02,8.377519033778503543e-02,8.393137841727095483e-02,8.334280089018072935e-02,8.211283346723592669e-02,8.039978825875192248e-02,7.839887193675393329e-02,7.632120742774921307e-02,7.437224851850647578e-02,7.273029179390293197e-02,7.152606917813381093e-02,7.082627570495769742e-02,7.062521414993792879e-02,7.084778545889824919e-02,7.136377183352297926e-02,7.200961396145161286e-02,7.261214067718183007e-02,7.300979985567361552e-02,7.306940897500679988e-02,7.269822578917156664e-02,7.185134065471897313e-02,7.053376232377987776e-02,6.879662461436431009e-02,6.672792416902617596e-02,6.443902614796132022e-02,6.204879131173491463e-02,5.966808074103968629e-02,5.738744803114161769e-02,5.526894152759510154e-02,5.334074984505124406e-02,5.159347517596368782e-02,4.997885521075461079e-02,4.841300845736992708e-02,4.678521589551029591e-02,4.497107896999335414e-02,4.284725547028379183e-02,4.030457059321162355e-02,3.725764055879648984e-02,3.365173267744882984e-02,2.946900203673928631e-02,2.473478854614518871e-02,1.952198448144109449e-02,1.395058234375119548e-02,8.180920671716451070e-03,2.401157898797526540e-03,-3.188956023938833290e-03,-8.395033919454496577e-03,-1.304296049844583770e-02,-1.699061721232653435e-02,-2.013720091656774971e-02,-2.243100684412352094e-02,-2.387467895667345213e-02,-2.452583989839031073e-02,-2.449227162481366557e-02,-2.392256693274673329e-02,-2.299366815322848728e-02,-2.189669908768943421e-02,-2.082269953160627643e-02,-1.994942214455745766e-02,-1.942899774216311909e-02,-1.937571102736923220e-02,-1.985466704441087027e-02,-2.087430324005949689e-02,-2.238587408196320017e-02,-2.429078104959841652e-02,-2.645390157758376048e-02,-2.871974617040888231e-02,-3.092873106754445711e-02,-3.293225735242764213e-02,-3.460624287181210401e-02,-3.586244130288025050e-02,-3.665609384798354520e-02,-3.698854854763958255e-02,-3.690436227420657023e-02,-3.648327234105743638e-02,-3.582854596455109508e-02,-3.505455814211475701e-02,-3.427639430862351733e-02,-3.360219223746584161e-02,-3.312684168879807822e-02,-3.292555460220839697e-02,-3.304734921942714676e-02,-3.350981800938657162e-02,-3.429655390070554533e-02,-3.535789169081464400e-02,-3.661510800310922853e-02,-3.796770118626113799e-02,-3.930253381882661129e-02,-4.050346146452607488e-02,-4.146122684722736845e-02,-4.208416509782816894e-02,-4.230922551837267703e-02,-4.211146632377314042e-02,-4.151008997711266163e-02,-4.056980954114271232e-02,-3.939735117102848710e-02,-3.813392548119062114e-02,-3.694472118573207536e-02,-3.600584972992385002e-02,-3.548886976236101387e-02,-3.554391430944961461e-02,-3.628401524653540600e-02,-3.777377691110543612e-02,-4.002415758391177081e-02,-4.299290804802813337e-02,-4.658868346124721282e-02,-5.067655152793548723e-02,-5.508374285100997580e-02,-5.960638229094768897e-02,-6.401897708057918690e-02,-6.808773816783848798e-02,-7.158720594626850897e-02,-7.431835655623292292e-02,-7.612556039395251828e-02,-7.690949365381422043e-02,-7.663441703583534492e-02,-7.533097838239520561e-02,-7.309689498188104428e-02,-7.009576551659262023e-02,-6.655159011244217437e-02,-6.273683997872685214e-02,-5.895475063063343457e-02,-5.551849904830621213e-02,-5.272884643098306456e-02,-5.084944010049734925e-02,-5.007896762542966146e-02,-5.052277671462342828e-02,-5.217023313757640501e-02,-5.488387883404069467e-02,-5.840212667643355365e-02,-6.235253342383384467e-02,-6.627058074867477055e-02,-6.961963125639250571e-02,-7.181082777168505682e-02,-7.222595161534205166e-02,-7.024899473360828039e-02,-6.531091064172359073e-02,-5.694653480163996279e-02,-4.485591489247305053e-02,-2.895824035334645941e-02,-9.427568423052562485e-03,1.329493376247879374e-02,3.851109725589237781e-02,6.529381271414760879e-02,9.252936374567605204e-02,1.189729678421018039e-01,1.433182694501635712e-01,1.642807557768901916e-01,1.806919031475197612e-01,1.915965937027125643e-01,0.000000000000000000e+00,0.000000000000000000e+00,0.000000000000000000e+00,0.000000000000000000e+00,0.000000000000000000e+00,0.000000000000000000e+00,0.000000000000000000e+00,0.000000000000000000e+00,0.000000000000000000e+00,0.000000000000000000e+00,0.000000000000000000e+00,0.000000000000000000e+00,0.000000000000000000e+00,0.000000000000000000e+00,0.000000000000000000e+00,0.000000000000000000e+00,0.000000000000000000e+00,0.000000000000000000e+00,0.000000000000000000e+00,0.000000000000000000e+00,0.000000000000000000e+00,0.000000000000000000e+00,0.000000000000000000e+00,0.000000000000000000e+00,0.000000000000000000e+00,0.000000000000000000e+00,0.000000000000000000e+00,0.000000000000000000e+00,0.000000000000000000e+00,0.000000000000000000e+00,0.000000000000000000e+00,0.000000000000000000e+00,0.000000000000000000e+00,0.000000000000000000e+00,0.000000000000000000e+00,0.000000000000000000e+00,0.000000000000000000e+00,0.000000000000000000e+00,0.000000000000000000e+00,0.000000000000000000e+00,0.000000000000000000e+00,0.000000000000000000e+00,0.000000000000000000e+00,0.000000000000000000e+00,0.000000000000000000e+00
1.963425660595587430e-01,1.946494215771676362e-01,1.866466127960630661e-01,1.728735588122004008e-01,1.542392778446062818e-01,1.319431179378308672e-01,1.073631444760383691e-01,8.192541196496459788e-02,5.697289310596934803e-02,3.365314587166359089e-02,1.283874934962034829e-02,-4.912705380620024931e-03,-1.935873981445674491e-02,-3.053674671993323805e-02,-3.870170395959491444e-02,-4.424746829530262077e-02,-4.762261534250716855e-02,-4.925172248396170183e-02,-4.947315234397663131e-02,-4.850244973485199479e-02,-4.642564270618226852e-02,-4.322194961557674492e-02,-3.881195915831306409e-02,-3.312295179625775188e-02,-2.615722472596304291e-02,-1.804624537046822796e-02,-9.076631400777369560e-03,3.186229399597310485e-04,9.602503027472380354e-03,1.820166593129640686e-02,2.558474757245037673e-02,3.133336474541548178e-02,3.519131413402185049e-02,3.708604475889532015e-02,3.712415403806005459e-02,3.556582404580110879e-02,3.278366370315100031e-02,2.921186025508141701e-02,2.529195004273495848e-02,2.142164305572412386e-02,1.791310029859524700e-02,1.496620137313697460e-02,1.265984972134375289e-02,1.096070052995131057e-02,9.745414301713752059e-03,8.830904907785236402e-03,8.007080724626277138e-03,7.067678869665637229e-03,5.836674029620504862e-03,4.189594951003408445e-03,2.069200514645696490e-03,-5.066443357148860084e-04,-3.447526657555761813e-03,-6.603775824612649961e-03,-9.787771118639626566e-03,-1.279907361120109950e-02,-1.544898168534902284e-02,-1.758088020638781668e-02,-1.908475997113281281e-02,-1.990629087775970182e-02,-2.005116141679031891e-02,-1.958443609039258598e-02,-1.862425327740378431e-02,-1.732999821755193751e-02,-1.588616988617592291e-02,-1.448388871944094984e-02,-1.330266366162436396e-02,-1.249508368221708722e-02,-1.217568063093384285e-02,-1.241346213879196587e-02,-1.322738608347640184e-02,-1.458519084862944758e-02,-1.640671578226769733e-02,-1.857212198198020248e-02,-2.093399296928131689e-02,-2.333125258232595159e-02,-2.560254802087194581e-02,-2.759733463649545471e-02,-2.918428219731079853e-02,-3.025801800867484320e-02,-3.074549490333736146e-02,-3.061207347454182257e-02,-2.986589779022824284e-02,-2.855875714965178461e-02,-2.678240077042810113e-02,-2.466046925794199846e-02,-2.233740482127357513e-02,-1.996620931723642675e-02,-1.769613697947121020e-02,-1.566044450277933112e-02,-1.396471799667215428e-02,-1.267735795565110533e-02,-1.182383107151231683e-02,-1.138554117080451712e-02,-1.130382741460252832e-02,-1.148911831903400189e-02,-1.183374361020144913e-02,-1.222568020303232104e-02,-1.256113040892983986e-02,-1.275512898207009291e-02,-1.274952690928943255e-02,-1.251725886561507253e-02,-1.206233820739705496e-02,-1.141629820037176786e-02,-1.063240466704881877e-02,-9.778785872485569811e-03,-8.931413424672086585e-03,-8.167525586734215165e-03,-7.559397544238503040e-03,-7.167907797012170075e-03,-7.035664553870019794e-03,-7.180363370104744965e-03,-7.589736534229703582e-03,-8.219385018668392412e-03,-8.994385857378077095e-03,-9.815077281836944584e-03,-1.056642231257481739e-02,-1.112939754088743821e-02,-1.139305306558574885e-02,-1.126664113492787875e-02,-1.069105965404215999e-02,-9.647952003467600776e-03,-8.164454865508038311e-03,-6.312326257080113322e-03,-4.201483897626245682e-03,-1.969143648513486423e-03,2.335777876260741195e-04,2.255691311893931461e-03,3.959667547977641609e-03,5.233500549571844934e-03,6.001102680456073778e-03,6.230006398860602271e-03,5.934987925364039810e-03,5.177033056766066829e-03,4.058157509032107868e-03,2.712902288932229813e-03,1.297192318500338913e-03,-2.477644900245694733e-05,-1.094989156206939082e-03,-1.776787548675542875e-03,-1.969537051411182540e-03,-1.620396915807934121e-03,-7.306634665880942184e-04,6.444170752059569067e-04,2.402149479179957123e-03,4.404491355749525286e-03,6.494161858427649307e-03,8.512016258040605229e-03,1.031317183513958714e-02,1.178072883329720627e-02,1.283642027191999289e-02,1.344695482366620350e-02,1.362492295838290020e-02,1.342427046065849602e-02,1.293129782932116514e-02,1.225276764752822670e-02,1.150352473561244010e-02,1.079616658935450384e-02,1.023358220131978524e-02,9.902820176579998565e-03,9.868482746457629684e-03,1.016604270604179808e-02,1.079722943492059974e-02,1.172895885847049201e-02,1.289577168033092559e-02,1.420523701770158229e-02,1.554582384287198082e-02,1.679666554187548080e-02,1.783879860174479581e-02,1.856776781014510963e-02,1.890707915490012075e-02,1.882068966402147131e-02,1.832181237836361457e-02,1.747567684371324759e-02,1.639487171849117117e-02,1.522722396548602079e-02,1.413817957178309555e-02,1.329110991031466106e-02,1.282848637794045503e-02,1.285562745191126156e-02,1.342845494770858114e-02,1.454691581533988989e-02,1.615522552635280037e-02,1.814905160913171320e-02,2.038877721918044492e-02,2.271674765313546132e-02,2.497500633479628890e-02,2.702002964417051997e-02,2.873309759988524476e-02,3.002733401436215310e-02,3.085290721524436633e-02,3.120042678534109756e-02,3.110108154631799002e-02,3.062215563506477667e-02,2.985806075138306911e-02,2.891863867996844958e-02,2.791740934445661668e-02,2.696220192191085482e-02,2.614874338097330705e-02,2.555535292236616601e-02,2.523648156663208658e-02,2.521517015748405907e-02,2.547705846335893143e-02,2.596902320223280075e-02,2.660411929820287458e-02,2.727227651327158997e-02,2.785399696507834949e-02,2.823366646196223684e-02,2.831071568927059565e-02,2.800884177014731705e-02,2.728369412362074628e-02,2.612832038009692964e-02,2.457523927642409414e-02,2.269463072101116086e-02,2.058842762944596699e-02,1.838009277495455604e-02,1.620120327028384821e-02,1.417787787113785995e-02,1.241976899142764254e-02,1.101193034479606113e-02,1.000828320446545995e-02,9.426045498880200255e-03,9.242166811133057866e-03,9.393708458902460048e-03,9.783551501450040919e-03,1.029120504700608771e-02,1.078648818062293534e-02,1.114288666647358580e-02,1.124875460186294113e-02,1.101687290228839031e-02,1.039332110017768263e-02,9.364954134766767177e-03,7.963469005247685029e-03,6.264434770223978495e-03,4.380916348854528054e-03,2.452618558255299785e-03,6.325749585453614710e-04,-9.263950254073232684e-04,-2.084471920424487996e-03,-2.727381507297652313e-03,-2.779075156625680516e-03,-2.212968241793000605e-03,-1.058368974651241294e-03,6.009378320135204269e-04,2.636572496263939885e-03,4.891703966448558184e-03,7.199636741654948970e-03,9.401272116520529784e-03,1.135938193667795741e-02,1.296906545076734543e-02,1.416446075814504178e-02,1.492200340187484729e-02,1.526047826627853835e-02,1.523768358482733253e-02,1.494302523720431736e-02,1.448585831119205206e-02,1.398123427206967272e-02,1.353628659132913997e-02,1.323996224138600762e-02,1.315655373550752259e-02,1.332180079669536069e-02,1.374078127224432483e-02,1.438828944116266051e-02,1.521264477766144652e-02,1.614268596745501924e-02,1.709660819203552215e-02,1.799082176042335335e-02,1.874712520869320151e-02,1.929776430274634386e-02,1.958968184853140254e-02,1.958936675367304453e-02,1.928794074614659584e-02,1.870460313387557749e-02,1.788665923807722033e-02,1.690544757863814140e-02,1.584868907622671158e-02,1.481079123664973130e-02,1.388296859057459171e-02,1.314446225052321587e-02,1.265534888995554358e-02,1.245113033842100772e-02,1.253938427548863602e-02,1.289886036264770684e-02,1.348138327933029977e-02,1.421667559220244834e-02,1.501955928897736638e-02,1.579809356307987009e-02,1.646103872141931393e-02,1.692429463905839940e-02,1.711746726628289930e-02,1.699164811136029407e-02,1.652773786478195506e-02,1.574278944130541938e-02,1.469147825504494437e-02,1.346121741800186331e-02,1.216173241342459639e-02,1.091186444281522054e-02,9.826804755631350641e-03,9.007519409254425777e-03,8.532106724950135751e-03,8.448111341307362049e-03,8.765866340457888206e-03,9.454474092233350335e-03,1.044253037253971110e-02,1.162470769592503610e-02,1.287338415436752037e-02,1.405274600256963338e-02,1.503253838917135467e-02,1.570004918793918916e-02,1.597049228099625684e-02,1.579615218608116517e-02,1.517330527265923525e-02,1.414461419281809115e-02,1.279523945367758153e-02,1.124310091661499984e-02,9.625701198758943727e-03,8.086514642747478013e-03,6.763041384938637407e-03,5.776754455677607890e-03,5.223808969126852476e-03,5.165935509061602739e-03,5.622733588276393295e-03,6.567636176731067241e-03,7.929411914705220346e-03,9.599751684363727264e-03,1.144564893121168686e-02,1.332367303471291946e-02,1.509316586164874407e-02,1.662705694248389418e-02,1.782087998773027732e-02,1.860087617033990420e-02,1.893051553706290302e-02,1.881336167243613522e-02,1.829089048194371819e-02,1.743580452038528267e-02,1.634263800595934721e-02,1.511769380504842698e-02,1.386994525471967922e-02,1.270347308227396006e-02,1.171077659891591426e-02,1.096594144647789967e-02,1.051757722764017078e-02,1.038280937871396276e-02,1.054430374041509175e-02,1.095195045500971937e-02,1.152945484755295118e-02,1.218423439061784921e-02,1.281817046848893020e-02,1.333771042598149055e-02,1.366334369924729342e-02,1.373867060122657864e-02,1.353791620627054805e-02,1.306974365647932401e-02,1.237597632391235040e-02,1.152535910474483845e-02,1.060374928945509096e-02,9.703266479479890141e-03,8.913185891126544635e-03,8.313689968411268685e-03,7.971248718565826855e-03,7.933723557250225294e-03,8.224680003999456854e-03,8.838293281418888730e-03,9.737272213741206967e-03,1.085581044839052135e-02,1.210752062646096132e-02,1.339591623211547171e-02,1.462453939375037495e-02,1.570544656320350951e-02,1.656637473398561017e-02,1.715714223331148494e-02,1.745505973590181364e-02,1.746836009878971127e-02,1.723637749684214793e-02,1.682537668583261939e-02,1.631988996529705124e-02,1.581113899098388759e-02,1.538532173706388950e-02,1.511420806749624174e-02,1.504904934260585699e-02,1.521747609614459811e-02,1.562269797771880311e-02,1.624464927729346586e-02,1.704287978854042429e-02,1.796087010939891038e-02,1.893129235700660717e-02,1.988138317595902413e-02,2.073746386997918009e-02,2.142853968749106053e-02,2.189018733087590152e-02,2.206993220250371909e-02,2.193379740278919229e-02,2.147244317771520097e-02,2.070561219598382810e-02,1.968431016615776463e-02,1.849000179484067488e-02,1.723014777899878336e-02,1.603041916744276860e-02,1.502441450625724081e-02,1.434112061259092477e-02,1.409047800870021593e-02,1.434891782947149592e-02,1.514778769037548878e-02,1.646696011997643774e-02,1.823470609196302036e-02,2.033402113617690729e-02,2.261449797967916148e-02,2.490770991463854209e-02,2.704401377924503524e-02,2.886950827511223019e-02,3.026205693633844673e-02,3.114438762106749511e-02,3.149180877261240075e-02,3.133315165673222075e-02,3.074525459918613438e-02,2.984239351903662796e-02,2.876255798069354830e-02,2.765270232805237469e-02,2.665472063837958511e-02,2.589285945074306164e-02,2.546262557280090308e-02,2.542168044153222603e-02,2.578404369389460452e-02,2.651927973243941444e-02,2.755783496353297543e-02,2.880193863381418085e-02,3.013913942690442035e-02,3.145489745540333559e-02,3.264270514229620362e-02,3.361273190907442671e-02,3.430011491508933724e-02,3.467197248167280810e-02,3.473096559133498351e-02,3.451426856282758387e-02,3.408846200359213346e-02,3.354159884280703136e-02,3.297386997984296658e-02,3.248824660014081045e-02,3.218184260828268334e-02,3.213775338614847932e-02,3.241702742960865524e-02,3.305170067041808546e-02,3.404074877880272632e-02,3.534999147966763622e-02,3.691573042462575893e-02,3.865135516583808467e-02,4.045557185017011753e-02,4.222060042506955990e-02,4.383973572889775933e-02,4.521512778919654224e-02,4.626663593851430140e-02,4.694092844087738303e-02,4.721844969354883209e-02,4.711626101104861297e-02,4.668646182050830568e-02,4.601114600837089008e-02,4.519522220851124317e-02,4.435818586186328349e-02,4.362511816209706239e-02,4.311642209637570056e-02,4.293605670345848613e-02,4.315940431115607157e-02,4.382320803478267912e-02,4.491979198257314149e-02,4.639644544836940554e-02,4.816007407991612643e-02,5.008673135479937977e-02,5.203451552661100821e-02,5.385777672338636080e-02,5.542138918249052415e-02,5.661438771516507512e-02,5.736164045236506748e-02,5.763161046962637923e-02,5.743862245535837074e-02,5.683915170563390296e-02,5.592312914721633138e-02,5.480258187519761182e-02,5.359995234125172064e-02,5.243698276876887499e-02,5.142372509765408967e-02,5.064752867628739136e-02,5.016336486282590990e-02,4.998770127364372123e-02,5.009738505418747517e-02,5.043374617478929567e-02,5.091128307053131852e-02,5.142929518701958719e-02,5.188393749697629148e-02,5.217879791361225428e-02,5.223388789812984101e-02,5.199369986004966776e-02,5.143405556573865667e-02,5.056643447999269181e-02,4.943855342827426641e-02,4.813074386031934021e-02,4.674841728639665683e-02,4.541163548876948203e-02,4.424340773388156511e-02,4.335816515603236471e-02,4.285094162791608374e-02,4.278731685664416418e-02,4.319483665158693753e-02,4.405740078398222986e-02,4.531390010946198532e-02,4.686161907299992574e-02,4.856432052249073233e-02,5.026438670985620277e-02,5.179788518154689048e-02,5.301123923567905433e-02,5.377803273398534811e-02,5.401392628131213014e-02,5.368716469226393617e-02,5.282263991388960744e-02,5.149881736525632053e-02,4.983811699584658056e-02,4.799245619291180043e-02,4.612675379538746373e-02,4.440333728345037534e-02,4.296878345762748103e-02,4.194297300599732214e-02,4.140965678821934698e-02,4.140870232421407782e-02,4.193124022978820392e-02,4.291920980572174610e-02,4.427022482310968843e-02,4.584756120925998629e-02,4.749389094897312619e-02,4.904681719408260365e-02,5.035456713360428327e-02,5.129085414922329722e-02,5.176812631061420561e-02,5.174779663551375142e-02,5.124520008174134750e-02,5.032731145435605236e-02,4.910327041800426756e-02,4.771020768510853688e-02,4.629783502068044593e-02,4.501415111211605480e-02,4.399263816261628907e-02,4.334032331634980056e-02,4.312682458061844332e-02,4.337605470480449671e-02,4.406285529209557489e-02,4.511571255633829020e-02,4.642492340516370802e-02,4.785451440940510087e-02,4.925607762519378791e-02,5.048300529234647782e-02,5.140412453288133177e-02,5.191614181756887964e-02,5.195407698570090466e-02,5.149828042178000026e-02,5.057668562552404545e-02,4.926173850846971708e-02,4.766222740726310664e-02,4.591093220605600711e-02,4.414994135716211049e-02,4.251622535125871433e-02,4.112974518336164759e-02,4.008494374548221550e-02,3.944506532077187572e-02,3.923856302434620968e-02,3.945747888939857978e-02,4.005793382350236742e-02,4.096281564780340084e-02,4.206686001463089131e-02,4.324406540734870852e-02,4.435678576251518568e-02,4.526597216876120794e-02,4.584279507504927798e-02,4.598165968307042772e-02,4.561295547301287556e-02,4.471252852059842686e-02,4.330539145133826401e-02,4.146295125493673628e-02,3.929473982240334895e-02,3.693681831839282920e-02,3.453922291672233830e-02,3.225370985432429033e-02,3.022165311716798128e-02,2.856162855538255801e-02,2.735717302251869029e-02,2.664655203687836538e-02,2.641711745943730455e-02,2.660651353811487735e-02,2.711146835141828651e-02,2.780253202354690881e-02,2.854131255344579884e-02,2.919694553904821424e-02,2.966028296502170800e-02,2.985566403484263970e-02,2.975000691709225875e-02,2.935831158995938842e-02,2.874469738909493297e-02,2.801833248225073236e-02,2.732372375922248117e-02,2.682581726098392377e-02,2.669208113856784761e-02,2.707445833205892466e-02,2.809317426090177788e-02,2.982325419035960351e-02,3.228450073579597346e-02,3.543619792352368375e-02,3.917786147583535855e-02,4.335669559893894770e-02,4.778136625122329090e-02,5.224042891697020657e-02,5.652271477359288587e-02,6.043696463902029775e-02,6.382902468029871823e-02,6.659578011238664885e-02,6.869467589718192269e-02,7.014701569599003650e-02,7.103371664903893046e-02,7.148356653793047633e-02,7.165540845718963714e-02,7.171710228641940688e-02,7.182511019367970873e-02,7.210797267051743953e-02,7.265501728297221740e-02,7.351001812863200424e-02,7.466936684105007771e-02,7.608528117967329474e-02,7.767497095503973770e-02,7.933511575269294736e-02,8.095842098702442369e-02,8.244795490748411948e-02,8.372665718654663525e-02,8.474223098121039244e-02,8.546899892777790053e-02,8.590772231400735370e-02,8.608339092476084697e-02,8.604080621584210553e-02,8.583824913988828686e-02,8.553978145417856505e-02,8.520671744205214615e-02,8.488931310935877994e-02,8.462028633002445510e-02,8.441104722381671810e-02,8.425014642620534677e-02,8.410342262586155415e-02,8.391642338354518560e-02,8.361983122195537632e-02,8.313749530443553803e-02,8.239573669600697148e-02,8.133236756363379505e-02,7.990372125512165691e-02,7.808816411795371781e-02,7.588565361549926003e-02,7.331441733055665821e-02,7.040699116328776042e-02,6.720834270148694223e-02,6.377787421890411534e-02,6.019437602228003975e-02,5.656023755609987380e-02,5.300094699026701439e-02,4.965826567366748295e-02,4.667816334946043449e-02,4.419568539133247181e-02,4.231850398974881106e-02,4.111069297374764925e-02,4.057923810394926251e-02,4.066647207330913172e-02,4.125050757906902066e-02,4.215390261501521241e-02,4.315939446821100145e-02,4.403002335564646513e-02,4.452983606724274235e-02,4.444238274452645687e-02,4.358680756833998443e-02,4.183269455112839652e-02,3.911362808125939949e-02,3.543706283235554394e-02,3.088690899257662270e-02,2.561641261807305961e-02,1.983197848807002894e-02,1.377167688652521441e-02,7.682925140031872553e-03,1.801992435597262561e-03,-3.664019476265550999e-03,-8.552383476388467076e-03,-1.275609572355938456e-02,-1.623016391815751414e-02,-1.899226619515002532e-02,-2.111757233638887968e-02,-2.272772722371684678e-02,-2.397516812772992195e-02,-2.502530226205978633e-02,-2.603889005236241158e-02,-2.715582610765635008e-02,-2.848116997239271211e-02,-3.007475090903334244e-02,-3.194568700807071809e-02,-3.405243573280188757e-02,-3.630821533491585679e-02,-3.859114321847200574e-02,-4.075803084814859367e-02,-4.266031391610162343e-02,-4.416029063144553957e-02,-4.514603696334148347e-02,-4.554391094707260085e-02,-4.532773488769959586e-02,-4.452353913755352499e-02,-4.320900110855319110e-02,-4.150737720264170705e-02,-3.957633321792200509e-02,-3.759319189983644643e-02,-3.573930025549831163e-02,-3.418551519756009988e-02,-3.307866675913782167e-02,-3.252821810465898744e-02,-3.259397478180590252e-02,-3.327745415689183084e-02,-3.451964987298001414e-02,-3.620657798580458747e-02,-3.818203376414610467e-02,-4.026503354682551411e-02,-4.226842343861299950e-02,-4.401607712497761921e-02,-4.535820069983354658e-02,-4.618521501392849893e-02,-4.643953419992385284e-02,-4.612312999419159593e-02,-4.529895140021884120e-02,-4.408539827818885870e-02,-4.264413944678311502e-02,-4.116306850779655191e-02,-3.983743792731363198e-02,-3.885145269522579520e-02,-3.836068381063991589e-02,-3.847541842005425261e-02,-3.924694943313016687e-02,-4.066033549701341537e-02,-4.263642652421429508e-02,-4.504346004989619873e-02,-4.771591786414260822e-02,-5.047682834646943784e-02,-5.315974663486452978e-02,-5.562787074929528147e-02,-5.778918117015277578e-02,-5.960712907091267332e-02,-6.110590235057938163e-02,-6.236859456817218927e-02,-6.352722020584415652e-02,-6.474535365828859579e-02,-6.619563279595831740e-02,-6.803508542816835702e-02,-7.038172815023897855e-02,-7.329548799539896409e-02,-7.676477323148003795e-02,-8.069883214311902864e-02,-8.492705826054870732e-02,-8.920777567767913807e-02,-9.324778776807465808e-02,-9.673064349207859125e-02,-9.934931169742089452e-02,-1.008390841574200031e-01,-1.010077039137534938e-01,-9.976034296030861226e-02,-9.711698889419362324e-02,-9.321997808888618509e-02,-8.833033520320762721e-02,-8.281264446782188315e-02,-7.710865799054827940e-02,-7.170004273823116225e-02,-6.706192493188171955e-02,-6.361214281995043740e-02,-6.166438924212023359e-02,-6.139248399276429208e-02,-6.280752693692678856e-02,-6.574524371684668800e-02,-6.986134254915887798e-02,-7.463570862707512299e-02,-7.938837898804503024e-02,-8.331125854140598863e-02,-8.551939645933760714e-02,-8.512264963638949133e-02,-8.131278154440144124e-02,-7.345553612418445621e-02,-6.117460119196197615e-02,-4.441527264687847310e-02,-2.347963979974690418e-02,9.696004415756573737e-04,2.793551872722872462e-02,5.614047344220651770e-02,8.410337634777084737e-02,1.102369123556083963e-01,1.329596742494031925e-01,1.508168992896606053e-01,1.626022971757128677e-01,0.000000000000000000e+00,0.000000000000000000e+00,0.000000000000000000e+00,0.000000000000000000e+00,0.000000000000000000e+00,0.000000000000000000e+00,0.000000000000000000e+00,0.000000000000000000e+00,0.000000000000000000e+00,0.000000000000000000e+00,0.000000000000000000e+00,0.000000000000000000e+00,0.000000000000000000e+00,0.000000000000000000e+00,0.000000000000000000e+00,0.000000000000000000e+00,0.000000000000000000e+00,0.000000000000000000e+00,0.000000000000000000e+00,0.000000000000000000e+00,0.000000000000000000e+00,0.000000000000000000e+00,0.000000000000000000e+00,0.000000000000000000e+00,0.000000000000000000e+00,0.000000000000000000e+00,0.000000000000000000e+00,0.000000000000000000e+00,0.000000000000000000e+00,0.000000000000000000e+00,0.000000000000000000e+00,0.000000000000000000e+00,0.000000000000000000e+00,0.000000000000000000e+00
