-7.615708049335481178e-01,-7.591661195598228273e-01,-7.506080333939213478e-01,-7.365875434287925128e-01,-7.178484212288644972e-01,-6.951671654877839002e-01,-6.693469448894077134e-01,-6.412195284987907140e-01,-6.116449892077839845e-01,-5.814992228879444225e-01,-5.516441205390504310e-01,-5.228827866047990325e-01,-4.959090133982820836e-01,-4.712625908885276216e-01,-4.492994784647485473e-01,-4.301810451139092550e-01,-4.138822394401410754e-01,-4.002159183279758170e-01,-3.888693972681680489e-01,-3.794489670281154248e-01,-3.715280687959996997e-01,-3.646940511335001189e-01,-3.585874486881635015e-01,-3.529289183206907876e-01,-3.475324852202070214e-01,-3.423068273130637218e-01,-3.372476807111247643e-01,-3.324246965681023624e-01,-3.279649019398685472e-01,-3.240324220232699837e-01,-3.208029520363470666e-01,-3.184337094044663585e-01,-3.170333540705779773e-01,-3.166380073021281549e-01,-3.171982132969305423e-01,-3.185792204909947967e-01,-3.205740432480178592e-01,-3.229258195571769186e-01,-3.253548073779782279e-01,-3.275861361295331897e-01,-3.293752162205845213e-01,-3.305280149822260594e-01,-3.309141462612014140e-01,-3.304722779408074129e-01,-3.292091471812384484e-01,-3.271942328093748187e-01,-3.245515684505885234e-01,-3.214492741723652403e-01,-3.180866766002884982e-01,-3.146783652033571244e-01,-3.114345136458605556e-01,-3.085380275085362611e-01,-3.061217610731162275e-01,-3.042512166675988561e-01,-3.029174455972358793e-01,-3.020419903425756725e-01,-3.014927339404263607e-01,-3.011069288273251487e-01,-3.007159772918586715e-01,-3.001673632934088731e-01,-2.993417899338281507e-01,-2.981648876670930925e-01,-2.966124659740802527e-01,-2.947086879189569353e-01,-2.925181300697616837e-01,-2.901340059303436636e-01,-2.876654976171312272e-01,-2.852268632359228340e-01,-2.829291634361359442e-01,-2.808733467082197288e-01,-2.791433842324708703e-01,-2.778000828615407869e-01,-2.768775322392095783e-01,-2.763832099465918790e-01,-2.763008539048514844e-01,-2.765943290252504405e-01,-2.772109064267408440e-01,-2.780830215548810158e-01,-2.791290378048932319e-01,-2.802551955787555005e-01,-2.813607813950235736e-01,-2.823462173994231161e-01,-2.831215020776859936e-01,-2.836125455522123251e-01,-2.837649482466374495e-01,-2.835463199957275471e-01,-2.829485081797957213e-01,-2.819905745735269420e-01,-2.807215801037042380e-01,-2.792197358746894564e-01,-2.775845049728647984e-01,-2.759221919396352973e-01,-2.743295303334737922e-01,-2.728797869194550807e-01,-2.716135152267339925e-01,-2.705347997816917038e-01,-2.696132376396144781e-01,-2.687904304989193194e-01,-2.679889827068230868e-01,-2.671231473726842220e-01,-2.661109423035226684e-01,-2.648859818434176061e-01,-2.634058771844127733e-01,-2.616556565758131891e-01,-2.596476773935921245e-01,-2.574205607842329768e-01,-2.550383783030371054e-01,-2.525893024324087355e-01,-2.501813346430611928e-01,-2.479324919542126027e-01,-2.459547823233676767e-01,-2.443347884596898945e-01,-2.431162142043034879e-01,-2.422894487292018562e-01,-2.417913941377095033e-01,-2.415170597957914389e-01,-2.413414564149935215e-01,-2.411461288281102899e-01,-2.408427962584047954e-01,-2.403885247955711013e-01,-2.397897363040222274e-01,-2.390938286646264455e-01,-2.383690303333468319e-01,-2.376778967859467240e-01,-2.370550192832202863e-01,-2.364990222212722260e-01,-2.359818242795703735e-01,-2.354700305078754607e-01,-2.349486494413669802e-01,-2.344362722029128820e-01,-2.339836941457006381e-01,-2.336553374236987057e-01,-2.335012556258046768e-01,-2.335312598191183475e-01,-2.337002914276290755e-01,-2.339084932949153650e-01,-2.340135794253642987e-01,-2.338495849677618976e-01,-2.332470430869239275e-01,-2.320534839930126214e-01,-2.301546875936412995e-01,-2.274945067252105990e-01,-2.240882791856158851e-01,-2.200256124831964089e-01,-2.154618849837430516e-01,-2.106012238957108151e-01,-2.056753519732612001e-01,-2.009222688120918254e-01,-1.965665177879563907e-01,-1.928004508072260481e-01,-1.897659180255206191e-01,-1.875385152899147478e-01,-1.861190363858123420e-01,-1.854357952178123659e-01,-1.853573683197334565e-01,-1.857117476990987059e-01,-1.863070444643597223e-01,-1.869498586886522984e-01,-1.874591926017967480e-01,-1.876761013051368443e-01,-1.874709197130617899e-01,-1.867492497960610009e-01,-1.854560453755776106e-01,-1.835768326486749702e-01,-1.811363352499392176e-01,-1.781954974165096683e-01,-1.748477567885144413e-01,-1.712148102735121524e-01,-1.674406119412955862e-01,-1.636810567937282135e-01,-1.600882362652755742e-01,-1.567917386600085894e-01,-1.538816188898630422e-01,-1.513967922721878856e-01,-1.493205427137064834e-01,-1.475833362605843135e-01,-1.460718945237156341e-01,-1.446421861827610900e-01,-1.431340034326857580e-01,-1.413867257048793125e-01,-1.392570381945342772e-01,-1.366373039071741013e-01,-1.334706038373750792e-01,-1.297590459540643171e-01,-1.255646254029134379e-01,-1.210033309971576265e-01,-1.162332234623504740e-01,-1.114374403666693464e-01,-1.068036089447442216e-01,-1.025015813381539298e-01,-9.866227819060556514e-02,-9.536162274095433267e-02,-9.261327119904910754e-02,-9.037124037523351638e-02,-8.854057367678792867e-02,-8.699275192624862652e-02,-8.558209841971692322e-02,-8.415937312981787433e-02,-8.258022621123044249e-02,-8.070985702295940811e-02,-7.842851223714053521e-02,-7.564110660457092072e-02,-7.228897791558237806e-02,-6.835882543641227937e-02,-6.388594330037355995e-02,-5.895225574886222425e-02,-5.368109073123573938e-02,-4.823002994406542371e-02,-4.278155009984651452e-02,-3.753020272003379509e-02,-3.266618550106697993e-02,-2.835732022144685574e-02,-2.473233557796950324e-02,-2.186726489701078940e-02,-1.977538696011672814e-02,-1.840153719986432207e-02,-1.762339000402615707e-02,-1.726266939445012666e-02,-1.710661563535930199e-02,-1.693604808756418723e-02,-1.655381801965165670e-02,-1.580743928127076314e-02,-1.460162745453993764e-02,-1.289985527693445107e-02,-1.071778314849812855e-02,-8.113271959849363210e-03,-5.176868983919710732e-03,-2.024772266320599892e-03,1.205814620537692342e-03,4.361505228406694495e-03,7.281415859420332926e-03,9.811028436632370300e-03,1.181881619096236853e-02,1.321201014771987425e-02,1.394897532112311656e-02,1.404682045677691123e-02,1.358366644131752191e-02,1.269512297763060286e-02,1.156356189444123113e-02,1.039825795128721669e-02,9.406688825844881918e-03,8.762411384514995696e-03,8.578897608634443450e-03,8.896549302355911265e-03,9.683537593562163703e-03,1.084677322744167539e-02,1.224916169324744356e-02,1.372999869793308653e-02,1.512511390395225586e-02,1.628357622637363264e-02,1.707965574947110238e-02,1.742094258447915087e-02,1.725365775566812393e-02,1.656466199813310183e-02,1.537927542199284472e-02,1.375539493476247120e-02,1.177539707874847991e-02,9.536767029995377523e-03,7.141535166785711181e-03,4.684816769424587045e-03,2.243894441828637662e-03,-1.297003749207458791e-04,-2.413124124516131345e-03,-4.610459235763919583e-03,-6.748397654345926998e-03,-8.871208759151313211e-03,-1.103558032250203519e-02,-1.330493430969137761e-02,-1.574189549215185280e-02,-1.839748924304333150e-02,-2.129762582934721302e-02,-2.443046042579590307e-02,-2.773939001055904241e-02,-3.112459436463507062e-02,-3.445283487441559017e-02,-3.757254447568297850e-02,-4.033021322268549175e-02,-4.258545402143742997e-02,-4.422439047845039967e-02,-4.517135121050363383e-02,-4.539753664204974198e-02,-4.492504952800382978e-02,-4.382620508047150448e-02,-4.221940352112674155e-02,-4.026263177960528322e-02,-3.814486616017131321e-02,-3.607540473223373040e-02,-3.427077698387883536e-02,-3.293798080803442274e-02,-3.225319514217247358e-02,-3.233849777894995392e-02,-3.324334925069797469e-02,-3.493776001285114896e-02,-3.731879866577213906e-02,-4.022632273058661390e-02,-4.346255088884237033e-02,-4.681268228542227738e-02,-5.006614376450208015e-02,-5.303793380232457721e-02,-5.558773396048668353e-02,-5.763315718144418343e-02,-5.915418254443773755e-02,-6.018801037501415180e-02,-6.081580390176458129e-02,-6.114439836008145335e-02,-6.128711718678731685e-02,-6.134830304811735024e-02,-6.141538695968502132e-02,-6.155921110431659959e-02,-6.183873633144313514e-02,-6.230410266360952853e-02,-6.299469787367423246e-02,-6.393328672274400937e-02,-6.511920417373238956e-02,-6.652334054324973711e-02,-6.808680064537897536e-02,-6.972382745421049077e-02,-7.132861361417380808e-02,-7.278585239863961942e-02,-7.398466834065133002e-02,-7.483340931499919690e-02,-7.527110235729654597e-02,-7.527341146837365771e-02,-7.485479070382061728e-02,-7.406926609421987662e-02,-7.300971053661269028e-02,-7.180379747776570454e-02,-7.060544424082332293e-02,-6.958151817985412657e-02,-6.889410104994560247e-02,-6.867969503857390690e-02,-6.902869282921766936e-02,-6.996970632482021890e-02,-7.146240828340691409e-02,-7.340002128236572387e-02,-7.562023269189660502e-02,-7.792204267387368988e-02,-8.008645318533542945e-02,-8.190046089774326299e-02,-8.318334987722841856e-02,-8.381034590526037498e-02,-8.372633466110171452e-02,-8.294654002661824843e-02,-8.154798287219694464e-02,-7.965776567536865527e-02,-7.744099252608740991e-02,-7.508750900640867587e-02,-7.279595951274361876e-02,-7.075502209542074150e-02,-6.912345104384158556e-02,-6.801233791977631671e-02,-6.747388848003352257e-02,-6.749939262310210297e-02,-6.802538091109842922e-02,-6.894441554180334719e-02,-7.011758228750952782e-02,-7.138773588151246796e-02,-7.259364020640698967e-02,-7.358524133942143108e-02,-7.423940620330243823e-02,-7.447334653420291384e-02,-7.425152854192262897e-02,-7.358360279933034986e-02,-7.251496140571865590e-02,-7.111456265825505385e-02,-6.946465084016970049e-02,-6.765470738781860505e-02,-6.577918123060738642e-02,-6.393637612214665700e-02,-6.222520455020248697e-02,-6.073814765663487769e-02,-5.955158251657929197e-02,-5.871608731366946554e-02,-5.824885312014740218e-02,-5.812962053730368756e-02,-5.830122504879613893e-02,-5.867504005418348878e-02,-5.914063521851038036e-02,-5.957890012957625658e-02,-5.987808397588139514e-02,-5.995084757788995272e-02,-5.974818440348012710e-02,-5.926625162766865906e-02,-5.854534501604828634e-02,-5.766310981147788894e-02,-5.672462773880340009e-02,-5.585123529279104743e-02,-5.516891753648765079e-02,-5.479615331579899828e-02,-5.483059116253564264e-02,-5.533526084653731664e-02,-5.632820246480754744e-02,-5.778062069496241182e-02,-5.962474620633288064e-02,-6.176662060406850480e-02,-6.409696645480851551e-02,-6.649651162744650568e-02,-6.883693972365785563e-02,-7.098170817235757712e-02,-7.279130976297386313e-02,-7.413466624360666446e-02,-7.490353044872186117e-02,-7.502447536662076866e-02,-7.446577502933381110e-02,-7.324071840573512238e-02,-7.140987503242095247e-02,-6.908240322828861080e-02,-6.641414434743712902e-02,-6.360032404225347824e-02,-6.086201732002723130e-02,-5.842655758306048580e-02,-5.650357264988981748e-02,-5.526030232579225154e-02,-5.480040565815245263e-02,-5.514943999088112170e-02,-5.624890014395204918e-02,-5.795980891421107645e-02,-6.007650929256858063e-02,-6.235070326767832433e-02,-6.452357651118162396e-02,-6.636035552329476450e-02,-6.767932146531506488e-02,-6.836901626782451724e-02,-6.839287090893585164e-02,-6.778520024689914381e-02,-6.664291068403201124e-02,-6.511489639769058035e-02,-6.338875213470569758e-02,-6.167294174915198546e-02,-6.017302726401492496e-02,-5.906435788576235024e-02,-5.846853091232164651e-02,-5.844147661508028446e-02,-5.897483406256972399e-02,-6.000451209561645516e-02,-6.141859290673198912e-02,-6.306210990760546808e-02,-6.474280449712015162e-02,-6.624429965206983517e-02,-6.735026992691893477e-02,-6.787707624284536334e-02,-6.770604113507690258e-02,-6.680413948103749999e-02,-6.522638541653688615e-02,-6.310196311476043429e-02,-6.061203857083417856e-02,-5.796665397200915365e-02,-5.538388601451916388e-02,-5.307083461608660263e-02,-5.120551355259229942e-02,-4.992101732202196968e-02,-4.929543889269116796e-02,-4.935017784098925941e-02,-5.005577084784007535e-02,-5.134103612698012742e-02,-5.310089735820419654e-02,-5.520096480271984019e-02,-5.748070364617423322e-02,-5.975932101082557374e-02,-6.184773004508022087e-02,-6.356617265294865760e-02,-6.476281790548077399e-02,-6.532762626523509752e-02,-6.519913180056259583e-02,-6.436613434411640744e-02,-6.286760437339919405e-02,-6.079248708823380143e-02,-5.827863132955744124e-02,-5.550730803382687706e-02,-5.268838085000493443e-02,-5.003471137193388901e-02,-4.773165711329271921e-02,-4.591147670446724116e-02,-4.463940293225238803e-02,-4.391218798244635180e-02,-4.366609958160812960e-02,-4.379042804020757962e-02,-4.414362329945388519e-02,-4.457117826274623051e-02,-4.492522885820578876e-02,-4.508440581434147720e-02,-4.497031909952461937e-02,-4.455662995132536608e-02,-4.386889098788625263e-02,-4.297674262792469668e-02,-4.198197236111064767e-02,-4.100522477389281772e-02,-4.017219638723416864e-02,-3.959897597718717993e-02,-3.937678016285311305e-02,-3.955867902757582988e-02,-4.015303177381023686e-02,-4.112650397921562700e-02,-4.241382869038518022e-02,-4.392792139838641585e-02,-4.556609074008428906e-02,-4.721254164130321562e-02,-4.874025815676449880e-02,-5.001591034492610527e-02,-5.090973354307525012e-02,-5.130906364666323188e-02,-5.113155517547886969e-02,-5.033411549852684352e-02,-4.891624488394292342e-02,-4.691954646313747923e-02,-4.442595377388976891e-02,-4.155543773469742852e-02,-3.846200252938252601e-02,-3.532629150168720839e-02,-3.234383317390835538e-02,-2.970952600893846454e-02,-2.760051827614525694e-02,-2.615971150319108124e-02,-2.548117549052386285e-02,-2.559849139400803553e-02,-2.647742215539910030e-02,-2.801453534461224859e-02,-3.004343877726719028e-02,-3.234968012583526453e-02,-3.469301189707969801e-02,-3.683243132975762280e-02,-3.854844571572894202e-02,-3.965995163160966619e-02,-4.003703660239484041e-02,-3.961209190413730874e-02,-3.838937325544200529e-02,-3.645016152327725661e-02,-3.394982506399235600e-02,-3.110496617479915557e-02,-2.817184004187727603e-02,-2.541954079197081620e-02,-2.310198094208269076e-02,-2.143143410204267213e-02,-2.055481766192149978e-02,-2.053386622039939449e-02,-2.133202092631326235e-02,-2.281236162335082904e-02,-2.475036359638838751e-02,-2.686176965065114469e-02,-2.884052453424916160e-02,-3.039834843596639358e-02,-3.129874956131243474e-02,-3.138187591041047969e-02,-3.057904916589779601e-02,-2.891687788264735853e-02,-2.651204982711578492e-02,-2.355880707006043073e-02,-2.031035828890144848e-02,-1.705416031486362005e-02,-1.408140955387935864e-02,-1.165353274274922440e-02,-9.971099075068141568e-03,-9.151024886252218105e-03,-9.215584712996808051e-03,-1.009355954695410895e-02,-1.163177384582262178e-02,-1.361432443735753617e-02,-1.578670288558034485e-02,-1.788276792419605729e-02,-1.965291008579382950e-02,-2.089036374376195340e-02,-2.145097471993098748e-02,-2.126268427440268505e-02,-2.032440256304353723e-02,-1.869755509951627828e-02,-1.649574936411488113e-02,-1.387685246848814960e-02,-1.103673589596028751e-02,-8.199297290220224077e-03,-5.598304669726475793e-03,-3.452255108896579681e-03,-1.938099376025204448e-03,-1.169911360083223696e-03,-1.186126619962444683e-03,-1.946919421552050725e-03,-3.341954093735161405e-03,-5.206778177601149513e-03,-7.343889097737800638e-03,-9.544323147582012973e-03,-1.160771303329088261e-02,-1.335981351661623059e-02,-1.466551324818044129e-02,-1.543594735887560826e-02,-1.563123068971795232e-02,-1.526136743764855246e-02,-1.438575064284327437e-02,-1.310954974681309559e-02,-1.157516302130092052e-02,-9.948183590368565865e-03,-8.399283341822586305e-03,-7.085343506618880551e-03,-6.133473410995673655e-03,-5.629534824177662156e-03,-5.610440941066762235e-03,-6.059220147730892334e-03,-6.903241449363869096e-03,-8.017263756593772175e-03,-9.233348380180706957e-03,-1.035894804318402557e-02,-1.120209581370295790e-02,-1.159906966016624116e-02,-1.143774392069212519e-02,-1.067131468589968546e-02,-9.320843784896915354e-03,-7.467763265627060804e-03,-5.238764155137683003e-03,-2.786709111359179751e-03,-2.713417300760747122e-04,2.158109450374477364e-03,4.377570054117457810e-03,6.298251476292437284e-03,7.869559069641034188e-03,9.074029508271042391e-03,9.917274139230445110e-03,1.041760058761144990e-02,1.059913523833002150e-02,1.049061601770644343e-02,1.012968130901775385e-02,9.569692633719548494e-03,8.884984119476021375e-03,8.171697424608156263e-03,7.542726956581041406e-03,7.115328188181070310e-03,6.991595372170420972e-03,7.237366470721401379e-03,7.868689116541750100e-03,8.851303985394284868e-03,1.011179088719980912e-02,1.155541196704659886e-02,1.308530143893826825e-02,1.461841295231355864e-02,1.609543119927949600e-02,1.748468387368619023e-02,1.878235741296365585e-02,2.001139706745334174e-02,2.122005756488047276e-02,2.247983196950757018e-02,2.388167834997884792e-02,2.552888472189051433e-02,2.752524739471954099e-02,2.995917611380406048e-02,3.288690593813797802e-02,3.631902790735435510e-02,4.021367808214938028e-02,4.447804529355211395e-02,4.897735775466274810e-02,5.354827902055828148e-02,5.801437149031320184e-02,6.220389779935375091e-02,6.597018734723456013e-02,6.921116571540288087e-02,7.188201439391177228e-02,7.399706973861633341e-02,7.562183340320872971e-02,7.685910221009520371e-02,7.783394063958486153e-02,7.868131886181591039e-02,7.953733277022573267e-02,8.053125974479925786e-02,8.177514872781607713e-02,8.335136605246509789e-02,8.530233961274040488e-02,8.762653291274857814e-02,9.028146602761841222e-02,9.319210177428191577e-02,9.626251315513746631e-02,9.938895448690841794e-02,1.024722414938627896e-01,1.054276302492720419e-01,1.081914363152370190e-01,1.107242475887902505e-01,1.130110991880552002e-01,1.150603908120791802e-01,1.169038896871777561e-01,1.185983355495545399e-01,1.202269489768255095e-01,1.218982398717823046e-01,1.237391387174190810e-01,1.258801225138178326e-01,1.284336043224280910e-01,1.314717059451737113e-01,1.350102628339710786e-01,1.390011310448607817e-01,1.433306518243416816e-01,1.478233492989877718e-01,1.522528003787650408e-01,1.563609108632083300e-01,1.598841266127072058e-01,1.625834427002761096e-01,1.642735996097549334e-01,1.648455055533331604e-01,1.642773416311656964e-01,1.626339928628659226e-01,1.600576719859511388e-01,1.567527007105245229e-01,1.529661011983549646e-01,1.489653073031604325e-01,1.450148847151760123e-01,1.413541055181429806e-01,1.381766044432704565e-01,1.356136746403503457e-01,1.337236146946936544e-01,1.324886726577539087e-01,1.318187123205245836e-01,1.315595228764075975e-01,1.315047213560406603e-01,1.314119831592368559e-01,1.310252370728637039e-01,1.301028145908298683e-01,1.284470911241311353e-01,1.259277092881788129e-01,1.224923427321762542e-01,1.181647515224238526e-01,1.130342436927068706e-01,1.072411897800081698e-01,1.009619314039233440e-01,9.439522656046130111e-02,8.775073698960088320e-02,8.123748953313331134e-02,7.504905058775421245e-02,6.934494134150966105e-02,6.423255311567842296e-02,5.975548552195426161e-02,5.589138053650788418e-02,5.255828261037096688e-02,4.962681434938793351e-02,4.693608381983278149e-02,4.431210570154674872e-02,4.158787157568640674e-02,3.862437813253186136e-02,3.533125784240037648e-02,3.168379460031105210e-02,2.773125712451095931e-02,2.359151871775196432e-02,1.943032004477728003e-02,1.542980070339058582e-02,1.175645603245225115e-02,8.538611129148511100e-03,5.857035943709417054e-03,3.745236329270262843e-03,2.194436675803991023e-03,1.161221572561264717e-03,5.774294259728240345e-04,3.604645755564438777e-04,4.210412879029337349e-04,6.665329404571950379e-04,1.000592825674987167e-03,1.322349899411193533e-03,1.529920965592531214e-03,1.531040296998780826e-03,1.258313338243073360e-03,6.824122247065459845e-04,-1.825442152546038338e-04,-1.282798061857579747e-03,-2.535358833109775320e-03,-3.840431066278747300e-03,-5.091750723610927176e-03,-6.183646743625871925e-03,-7.016848195161902273e-03,-7.505666876889418096e-03,-7.587025249765449487e-03,-7.229599562969776447e-03,-6.441428851863422594e-03,-5.275483458301631970e-03,-3.831967050078989925e-03,-2.254222399580127403e-03,-7.156383283041956728e-04,6.018415309617384298e-04,1.534207758081572448e-03,1.962197270405596078e-03,1.833317346858392158e-03,1.174881377521408898e-03,9.650498588428422717e-05,-1.216701058979693679e-03,-2.517673771860615139e-03,-3.515334540769396877e-03,-3.895978374043784689e-03,-3.348722952180385477e-03,-1.595348581757206115e-03,1.577984709008996636e-03,6.292813547747742528e-03,1.255984067745983222e-02,2.027163181017731242e-02,2.920484187667668832e-02,3.902979163972162407e-02,4.932607949779858891e-02,5.960363862443075755e-02,6.932970697241902513e-02,7.796218683501869584e-02,8.498744802004076782e-02,8.995806842939113590e-02,9.252610096029301179e-02,9.246997277569954377e-02,8.971582078708803532e-02,8.435448856506236326e-02,7.665265895609681135e-02,6.705304644280477011e-02,5.615822744455666038e-02,4.469679808381572111e-02,3.347615372412299922e-02,2.332937361054177733e-02,1.506292590148819097e-02,9.408468578000265398e-03,6.979548213071568551e-03,8.235096484065330263e-03,1.345263385050152367e-02,2.271031712307935990e-02,3.587280814275017188e-02,5.257843866996136928e-02,7.223131665395444989e-02,9.400408094210532806e-02,1.168547193677566681e-01,1.395593029659413231e-01,1.607622723478962790e-01,1.790434715416711620e-01,1.929964767225832156e-01,2.013101093207227410e-01,2.028459575751573596e-01,1.967070107030339798e-01,1.822953859303433899e-01,1.593613507594796863e-01,1.280477108115891660e-01,8.892720836036667464e-02,4.301856159506255856e-02,-8.239687330935212273e-03,-6.307193586656922868e-02,-1.195009883971005077e-01,-1.755102325272922814e-01,-2.291957694460634298e-01,-2.788813459975952869e-01,-3.231889866635703212e-01,-3.610728744757087938e-01,-3.918284742926536057e-01,-4.150856633441021293e-01,-4.307877540374377423e-01,-4.391542181551532642e-01,0.000000000000000000e+00,0.000000000000000000e+00,0.000000000000000000e+00,0.000000000000000000e+00,0.000000000000000000e+00,0.000000000000000000e+00,0.000000000000000000e+00,0.000000000000000000e+00,0.000000000000000000e+00,0.000000000000000000e+00,0.000000000000000000e+00,0.000000000000000000e+00,0.000000000000000000e+00,0.000000000000000000e+00,0.000000000000000000e+00,0.000000000000000000e+00,0.000000000000000000e+00,0.000000000000000000e+00,0.000000000000000000e+00,0.000000000000000000e+00,0.000000000000000000e+00,0.000000000000000000e+00,0.000000000000000000e+00,0.000000000000000000e+00,0.000000000000000000e+00,0.000000000000000000e+00,0.000000000000000000e+00,0.000000000000000000e+00,0.000000000000000000e+00,0.000000000000000000e+00,0.000000000000000000e+00,0.000000000000000000e+00,0.000000000000000000e+00,0.000000000000000000e+00,0.000000000000000000e+00,0.000000000000000000e+00,0.000000000000000000e+00,0.000000000000000000e+00,0.000000000000000000e+00,0.000000000000000000e+00,0.000000000000000000e+00,0.000000000000000000e+00,0.000000000000000000e+00,0.000000000000000000e+00,0.000000000000000000e+00,0.000000000000000000e+00,0.000000000000000000e+00,0.000000000000000000e+00,0.000000000000000000e+00,0.000000000000000000e+00,0.000000000000000000e+00,0.000000000000000000e+00,0.000000000000000000e+00,0.000000000000000000e+00,0.000000000000000000e+00,0.000000000000000000e+00,0.000000000000000000e+00,0.000000000000000000e+00,0.000000000000000000e+00,0.000000000000000000e+00,0.000000000000000000e+00,0.000000000000000000e+00,0.000000000000000000e+00,0.000000000000000000e+00,0.000000000000000000e+00,0.000000000000000000e+00,0.000000000000000000e+00,0.000000000000000000e+00,0.000000000000000000e+00,0.000000000000000000e+00,0.000000000000000000e+00,0.000000000000000000e+00,0.000000000000000000e+00,0.000000000000000000e+00,0.000000000000000000e+00,0.000000000000000000e+00,0.000000000000000000e+00,0.000000000000000000e+00,0.000000000000000000e+00,0.000000000000000000e+00,0.000000000000000000e+00
-4.406276486761205313e-01,-4.358113615409873742e-01,-4.254071894574594781e-01,-4.101625937818494938e-01,-3.908344155143492760e-01,-3.681733720236431417e-01,-3.429271557874196130e-01,-3.158524054662482095e-01,-2.877223165846485853e-01,-2.593199351786985019e-01,-2.314140271982119967e-01,-2.047207444318601965e-01,-1.798592062140288994e-01,-1.573121027369693836e-01,-1.374006003920871521e-01,-1.202757799971377328e-01,-1.059233310219531571e-01,-9.417972429145893276e-02,-8.476121207462739005e-02,-7.730415197038360831e-02,-7.140926931954903745e-02,-6.668158177072606996e-02,-6.276219395488222275e-02,-5.935165681826097550e-02,-5.622414307580864135e-02,-5.323097130474247624e-02,-5.029409958862995911e-02,-4.739301769767634287e-02,-4.454974319066211386e-02,-4.181654545571138193e-02,-3.926841144642998632e-02,-3.699696243256367367e-02,-3.509987362872069722e-02,-3.366414481546143450e-02,-3.274827924061129297e-02,-3.236993300341078905e-02,-3.250150696416702345e-02,-3.307203632881692418e-02,-3.397266091468964522e-02,-3.506378572859043113e-02,-3.618342420480674670e-02,-3.715757790104818464e-02,-3.781384526471550517e-02,-3.799810798764672454e-02,-3.759178323778799430e-02,-3.652556018176932040e-02,-3.478647177537140533e-02,-3.241801237747399256e-02,-2.951529240032962909e-02,-2.621763697206582963e-02,-2.269997573548729330e-02,-1.916235654721892834e-02,-1.581552913039377048e-02,-1.286215732722149896e-02,-1.047675097016589202e-02,-8.788585892863499949e-03,-7.869893482115619329e-03,-7.729843834472445267e-03,-8.314574229098736433e-03,-9.513037998455873764e-03,-1.116781896007770780e-02,-1.309066141394101684e-02,-1.508289978731791603e-02,-1.695869018765545563e-02,-1.856575458529918787e-02,-1.979880105698605952e-02,-2.060472497851141907e-02,-2.098146059448303957e-02,-2.097237420479845099e-02,-2.065771572911070941e-02,-2.014450868564390471e-02,-1.955496132565404110e-02,-1.901188189868999179e-02,-1.862079337350939362e-02,-1.845250241785958284e-02,-1.853202236481790721e-02,-1.883723459144185861e-02,-1.930663837118098969e-02,-1.985292718746495266e-02,-2.037784958044260367e-02,-2.078454416728368892e-02,-2.098650607886756031e-02,-2.091475465694044716e-02,-2.052434314459657475e-02,-1.979924205264661091e-02,-1.875370322691232577e-02,-1.742964171325330283e-02,-1.589182246623462372e-02,-1.422366532249475131e-02,-1.252527135149520028e-02,-1.091245719287698909e-02,-9.513334958550790851e-03,-8.459090183388317391e-03,-7.868547139381272190e-03,-7.830345738038946637e-03,-8.388319654984790347e-03,-9.533192968877881798e-03,-1.120025689377041403e-02,-1.327172759634346992e-02,-1.558337856192202123e-02,-1.793579429507154502e-02,-2.011070906502428896e-02,-2.189213290447235977e-02,-2.309000470777373276e-02,-2.356214109037955626e-02,-2.323014097878679449e-02,-2.208656499614471136e-02,-2.019261566937787314e-02,-1.766725280842293064e-02,-1.467036521094268117e-02,-1.138377781550180962e-02,-7.994123430295948726e-03,-4.680726300987654576e-03,-1.609123783168393048e-03,1.072319976174394320e-03,3.236560956381155565e-03,4.785210834118190128e-03,5.658962299908915430e-03,5.849187270717513126e-03,5.407714717864411241e-03,4.450360819135973887e-03,3.148849525952172879e-03,1.708510368369767305e-03,3.362105197091235908e-04,-7.909285919000951133e-04,-1.546550349203785948e-03,-1.863279660605930872e-03,-1.731162315032597297e-03,-1.190106086056113861e-03,-3.187653667595727325e-04,7.784166306621775194e-04,1.984526455786105384e-03,3.182857766981139497e-03,4.268481974837695994e-03,5.158215997909811057e-03,5.798219226678251112e-03,6.168722796920322882e-03,6.285757738854801449e-03,6.199753140958873601e-03,5.990826086478837423e-03,5.760261494401550976e-03,5.617797374501026439e-03,5.666562362776572659e-03,5.990429193777901951e-03,6.648011811089810444e-03,7.672734422428042697e-03,9.074125663896474847e-03,1.083636280060248230e-02,1.291452241190335463e-02,1.523193872347589767e-02,1.768165963483019076e-02,2.013307729434154342e-02,2.244328650993529517e-02,2.447184126750032857e-02,2.609685539069619281e-02,2.722996384919619886e-02,2.782812608083352901e-02,2.790139594511546056e-02,2.751649174481978974e-02,2.679546396517726650e-02,2.590749631568574352e-02,2.505191238050629571e-02,2.443333546496155931e-02,2.423414832223282078e-02,2.459158045275098431e-02,2.558503329034471710e-02,2.723458754678362986e-02,2.950719838809912413e-02,3.232567259737147147e-02,3.557721339248898218e-02,3.912135470705420393e-02,4.279940095056500304e-02,4.644725580630260781e-02,4.991103013801585775e-02,5.306251392533318373e-02,5.581110147360048707e-02,5.810993694381456909e-02,5.995626032562249158e-02,6.138791688162088811e-02,6.247841329505038344e-02,6.333163472060432397e-02,6.407517340191618005e-02,6.484988545770857538e-02,6.579486504421240556e-02,6.703069111058292118e-02,6.864557034825138904e-02,7.068702387342511162e-02,7.315867602526569813e-02,7.602055104957128329e-02,7.919239529033900160e-02,8.256117305586836708e-02,8.599398777446039255e-02,8.935562653626120955e-02,9.252732599146870629e-02,9.542291254772673759e-02,9.800038155457230227e-02,1.002677547568890243e-01,1.022805207959484597e-01,1.041287547624703685e-01,1.059175870290529481e-01,1.077489445709145649e-01,1.097094173937443462e-01,1.118629953894419160e-01,1.142462125496560982e-01,1.168665506122998354e-01,1.197063767845777671e-01,1.227316343069693588e-01,1.259005722579094599e-01,1.291674709777853869e-01,1.324800310023739880e-01,1.357737851960390540e-01,1.389696648786649114e-01,1.419802513830067947e-01,1.447258010659929761e-01,1.471548073063769224e-01,1.492603625898859254e-01,1.510856404377859119e-01,1.527171115654370193e-01,1.542689482924651245e-01,1.558642693963963877e-01,1.576175137363924617e-01,1.596191113987819876e-01,1.619222921091054146e-01,1.645333726125599583e-01,1.674088365248134480e-01,1.704616880667920165e-01,1.735756079931089491e-01,1.766219039581501393e-01,1.794735110593801697e-01,1.820119536633111601e-01,1.841274484412489532e-01,1.857177202259480686e-01,1.866918800283371427e-01,1.869801588413110283e-01,1.865453561856940667e-01,1.853924177324976497e-01,1.835745292534605999e-01,1.811935510457715059e-01,1.783925653997118221e-01,1.753419224268410181e-01,1.722237693716317519e-01,1.692186009342450115e-01,1.664930815712747370e-01,1.641874273664688522e-01,1.624032076400697133e-01,1.611936885432259103e-01,1.605578768719307381e-01,1.604390833342453082e-01,1.607291656716523243e-01,1.612788680713019007e-01,1.619134157409212738e-01,1.624519622098989091e-01,1.627288027869763787e-01,1.626125744539881068e-01,1.620188066986137099e-01,1.609133551011910079e-01,1.593078666206303173e-01,1.572506663723761688e-01,1.548169857702560992e-01,1.521012787661189247e-01,1.492112927656001897e-01,1.462610015555563248e-01,1.433604582674327110e-01,1.406040540090080226e-01,1.380606958203732804e-01,1.357682922760707067e-01,1.337324756140313708e-01,1.319280124334089865e-01,1.303014144603177604e-01,1.287744711479833215e-01,1.272500313375770076e-01,1.256220791417626270e-01,1.237908473853091135e-01,1.216802641018444736e-01,1.192516611206123622e-01,1.165081202635354363e-01,1.134885994093035866e-01,1.102563571274849524e-01,1.068883588436888299e-01,1.034697729762820706e-01,1.000923507784706873e-01,9.685221252240620859e-02,9.384384420156388629e-02,9.115075890051321794e-02,8.883580880124301860e-02,8.693405898969637502e-02,8.544926660903573445e-02,8.435324196332122382e-02,8.358712106145152476e-02,8.306461020598489287e-02,8.267805280279451330e-02,8.230757809197347674e-02,8.183186756228752468e-02,8.113777568563350362e-02,8.012688668226440603e-02,7.871984109214914815e-02,7.686136827961850826e-02,7.452826097531634053e-02,7.173950107326614034e-02,6.856464694273115001e-02,6.512535706792751955e-02,6.158618541205282404e-02,5.813456906100554489e-02,5.495529343089890217e-02,5.220783604631003272e-02,5.001233011346439133e-02,4.844398541456356594e-02,4.753220338880261020e-02,4.726086660276411500e-02,4.756836199659920938e-02,4.834841384867114705e-02,4.945503759037912089e-02,5.071467088624981995e-02,5.194441938329291686e-02,5.297115596446547864e-02,5.364685120373009763e-02,5.385957392821041911e-02,5.354202665875786721e-02,5.267861505139261741e-02,5.130963838735920490e-02,4.952940824923841856e-02,4.747560091569517915e-02,4.531019441325983416e-02,4.319626108000482190e-02,4.127690217430143860e-02,3.966102353485864013e-02,3.841697934351279847e-02,3.757236097220923582e-02,3.711738570635994550e-02,3.701004515018521679e-02,3.718288990182169046e-02,3.755247466362744702e-02,3.803154542273425032e-02,3.854166156448148722e-02,3.902248695843754667e-02,3.943528659221291754e-02,3.976112899383440341e-02,3.999621318071056031e-02,4.014697946886114366e-02,4.022687261849107465e-02,4.025476289696918591e-02,4.025330520310731880e-02,4.024602491099465301e-02,4.025380997791058735e-02,4.029190310361826372e-02,4.036737137421006483e-02,4.047683063921898861e-02,4.060518124404986773e-02,4.072620099150772721e-02,4.080467424748983329e-02,4.079894311358151643e-02,4.066298853690963194e-02,4.034783463472252363e-02,3.980314114363654732e-02,3.898093959211938742e-02,3.784306991955391913e-02,3.637156517417797219e-02,3.457874574198564754e-02,3.251294364582570096e-02,3.025714760774487339e-02,2.792047863067452160e-02,2.562454332599705190e-02,2.348804214259199094e-02,2.161386482296600783e-02,2.008182901130804027e-02,1.894662868778234158e-02,1.823785199603566651e-02,1.795963942540589053e-02,1.808913253507304919e-02,1.857352517384917509e-02,1.932773160044552394e-02,2.023780317197973466e-02,2.117383636936875230e-02,2.200971869646983770e-02,2.264238285841410625e-02,2.300451705301949368e-02,2.306904043855211722e-02,2.284674697224278045e-02,2.237931881307143184e-02,2.172963643512468290e-02,2.097071354323990985e-02,2.017378826521576754e-02,1.939613393651892434e-02,1.867091281627952445e-02,1.800292714339118971e-02,1.737219622864312821e-02,1.674283354939904225e-02,1.607235088404530138e-02,1.531788211844833936e-02,1.443869212844567547e-02,1.339723594914613881e-02,1.216275271631117247e-02,1.071950332449701955e-02,9.076640128110491368e-03,7.273552530221502957e-03,5.377332243632037580e-03,3.474706856132383018e-03,1.663436324519083822e-03,4.610577273479049554e-05,-1.274528169540691414e-03,-2.201559387441956190e-03,-2.653384041530862467e-03,-2.575747341873843230e-03,-1.952670358850000162e-03,-8.119005799886382276e-04,7.770046358843642371e-04,2.710392742053260688e-03,4.861203844438185748e-03,7.090637006389624401e-03,9.259254172329842852e-03,1.123612317058971487e-02,1.290588215209399064e-02,1.417461480189886533e-02,1.497440748812854314e-02,1.526568548735493872e-02,1.503804271960570288e-02,1.431151787515242725e-02,1.313860173113597270e-02,1.160475767293340718e-02,9.824594214953489765e-03,7.932441953479836896e-03,6.068633109254929249e-03,4.364434976514740099e-03,2.928783716566985343e-03,1.839010030675164963e-03,1.135619220050802921e-03,8.189182300823820426e-04,8.453889692950310435e-04,1.124727808294884212e-03,1.521350581477331652e-03,1.864296386467679785e-03,1.967322134220657239e-03,1.657518334534579261e-03,8.065156453164277345e-04,-6.444283438020895032e-04,-2.672805723915982600e-03,-5.179210606311839341e-03,-8.004980489157785539e-03,-1.095683426607362010e-02,-1.383107979697735176e-02,-1.643226505331178700e-02,-1.858579786055822650e-02,-2.014722587871045981e-02,-2.101036819331255842e-02,-2.111442181232239118e-02,-2.044938394596472128e-02,-1.905948134973153157e-02,-1.704402456949646871e-02,-1.455402596698377599e-02,-1.178236881462321230e-02,-8.946441847232774677e-03,-6.264893610799075925e-03,-3.932906586046358913e-03,-2.101497565262136491e-03,-8.653070566949534748e-04,-2.602370720161620993e-04,-2.686373447277120435e-04,-8.281867720339357655e-04,-1.841855658015987066e-03,-3.188475979066021041e-03,-4.734447695177437451e-03,-6.346529849837574504e-03,-7.904630325867887525e-03,-9.312799523540332691e-03,-1.050611429088497625e-02,-1.145154352775057394e-02,-1.214319883721052401e-02,-1.259530512346987430e-02,-1.283682441300112824e-02,-1.290875689500278235e-02,-1.286123550742019825e-02,-1.274661976991626686e-02,-1.260836748361954598e-02,-1.247031972625812710e-02,-1.233186050516781214e-02,-1.217048184293301367e-02,-1.194952079633802497e-02,-1.162803948214894724e-02,-1.116996071921412710e-02,-1.054996204703303672e-02,-9.755688191258835365e-03,-8.788049909661480724e-03,-7.661198886493655533e-03,-6.402247888055602812e-03,-5.050280185398409172e-03,-3.654744552451050319e-03,-2.273827302462936607e-03,-9.736384660134073110e-04,1.710501833849221130e-04,1.075370664585079865e-03,1.645610342926751490e-03,1.786829289726266394e-03,1.417289644003436695e-03,4.857839214794741536e-04,-1.014039909633794936e-03,-3.036381748338286193e-03,-5.483551316921151352e-03,-8.212380962521170433e-03,-1.104536077892117815e-02,-1.378574621663779254e-02,-1.623625751579795343e-02,-1.822003798369637925e-02,-1.960027636323742259e-02,-2.029347954546596722e-02,-2.027334905895384828e-02,-1.956660297298068452e-02,-1.824451783363279997e-02,-1.641286666615277001e-02,-1.420127026428342348e-02,-1.175255538990097395e-02,-9.212528027387961033e-03,-6.720356685454406155e-03,-4.400120474383634357e-03,-2.354550201338193472e-03,-6.618645145683469885e-04,6.239492909146022483e-04,1.470001778036762914e-03,1.860735448224869843e-03,1.796959688051403279e-03,1.299844097511045765e-03,4.181998673312055121e-04,-7.660200088013750623e-04,-2.138799795323455787e-03,-3.562946377041088884e-03,-4.892686717247980016e-03,-5.990788213026107534e-03,-6.745226584931956169e-03,-7.083139192967938952e-03,-6.980698786087907032e-03,-6.467653155632174106e-03,-5.624685667464625165e-03,-4.572407000752903503e-03,-3.453481539508845150e-03,-2.411989359206919651e-03,-1.574343326691566344e-03,-1.034190660579982143e-03,-8.417397840324268576e-04,-9.975714446680836525e-04,-1.452028716545812875e-03,-2.111707313235686948e-03,-2.853159494428243216e-03,-3.541834935353442050e-03,-4.053007712247582058e-03,-4.291185240439086487e-03,-4.205024746809820496e-03,-3.795610897133011585e-03,-3.116248056150799570e-03,-2.262292132926906410e-03,-1.351947164336211784e-03,-5.030234432648900827e-04,1.869855375665045207e-04,6.516187891546596639e-04,8.551004876558090939e-04,7.835148869570342060e-04,4.335530992282715830e-04,-1.944837679249741130e-04,-1.096211564333184063e-03,-2.256781068642381080e-03,-3.641891210981345207e-03,-5.188811989410147332e-03,-6.800701900322314239e-03,-8.348978369272494482e-03,-9.686452367645568412e-03,-1.066842200956854420e-02,-1.117521469941184196e-02,-1.113045527412708652e-02,-1.051219718098691386e-02,-9.356524559969891380e-03,-7.754869309077067063e-03,-5.846539303329260570e-03,-3.806752428924350083e-03,-1.829802403506212115e-03,-1.083477933696229932e-04,1.188358108831850902e-03,1.934265660198048256e-03,2.062022678925441634e-03,1.571927729853465081e-03,5.324195681568862429e-04,-9.279361368935523484e-04,-2.634834280363939057e-03,-4.386801901980914506e-03,-5.977117214501097113e-03,-7.217952846031324560e-03,-7.963523157295218646e-03,-8.128108799914561880e-03,-7.696199322761269890e-03,-6.723831364662448233e-03,-5.331381182733014104e-03,-3.688991185314626896e-03,-1.996586847803699920e-03,-4.607680414090418487e-04,7.292135599770029585e-04,1.424031261273036924e-03,1.532272920312604007e-03,1.030620693395120071e-03,-3.504064601214402358e-05,-1.556492139232696151e-03,-3.376161614406037684e-03,-5.304305254323784732e-03,-7.138005881379602333e-03,-8.679668937576023521e-03,-9.753989223672397679e-03,-1.022295248712031847e-02,-9.997227745982995017e-03,-9.042198655516069800e-03,-7.379185713526118309e-03,-5.083428048324257868e-03,-2.278704179810954206e-03,8.722558256525230792e-04,4.180826692113959360e-03,7.447461754675959583e-03,1.047815708800526463e-02,1.310231267665876859e-02,1.519015316871993870e-02,1.666652210891820390e-02,1.751867738105726546e-02,1.779720897859218484e-02,1.761000169411932118e-02,1.710993349933097665e-02,1.647820189243410019e-02,1.590577939431660898e-02,1.557486143327464073e-02,1.564174718021303992e-02,1.622343755714487912e-02,1.739029084652950891e-02,1.916466721178836097e-02,2.152296063274609234e-02,2.439890478935786977e-02,2.768875240828834461e-02,3.126034748702535837e-02,3.496696423478189153e-02,3.866462311760990311e-02,4.222958974947590982e-02,4.557177046983799246e-02,4.864108407270895801e-02,5.142697488956031460e-02,5.395333033080338542e-02,5.627118007087959783e-02,5.845089098522259635e-02,6.057475322171344129e-02,6.272958194502378793e-02,6.499775231376508922e-02,6.744576447294052535e-02,7.011249744104815218e-02,7.300142843643875334e-02,7.607939650641919183e-02,7.928123435683956388e-02,8.251799919755065105e-02,8.568673662805315061e-02,8.868085053369051396e-02,9.140143386695724625e-02,9.377005767479112963e-02,9.574172825401623677e-02,9.731429303400242203e-02,9.853060440841013290e-02,9.947325377089658027e-02,1.002553549198783589e-01,1.010112139024416239e-01,1.018880343395496407e-01,1.030365973835108973e-01,1.045978060577307939e-01,1.066846714518769335e-01,1.093637310151946290e-01,1.126416459098883299e-01,1.164605407682306887e-01,1.207023258413604111e-01,1.252004417562400385e-01,1.297570052225628934e-01,1.341628095429850676e-01,1.382171633283920953e-01,1.417446958436067994e-01,1.446066721204047889e-01,1.467055908906072237e-01,1.479842826608469830e-01,1.484227368912847678e-01,1.480361313754995356e-01,1.468755588976831117e-01,1.450292316797016923e-01,1.426201504414026933e-01,1.397985498589060516e-01,1.367301238237352556e-01,1.335814927964681653e-01,1.305049011212571219e-01,1.276252835112138551e-01,1.250321533981672839e-01,1.227762037366084136e-01,1.208687008927424728e-01,1.192817361632916434e-01,1.179483406289426606e-01,1.167631246924198535e-01,1.155859591667646458e-01,1.142513666976178593e-01,1.125839629694423139e-01,1.104173095714875291e-01,1.076121836733705400e-01,1.040710691264021270e-01,9.974757111325027736e-02,9.465091265821287680e-02,8.884580812449122122e-02,8.244733832123425643e-02,7.561038610011176775e-02,6.851479703380095043e-02,6.134962069508763383e-02,5.429948316054528101e-02,4.753306111231949543e-02,4.119206911215132771e-02,3.538120440460999078e-02,3.016137945824548527e-02,2.554739503225600047e-02,2.150936741105424765e-02,1.797762715890153379e-02,1.485191757513015277e-02,1.201450810361106257e-02,9.344542971737429191e-03,6.731326596428825748e-03,4.086804294553526840e-03,1.358068523975148028e-03,-1.461607520562163004e-03,-4.326812271902812090e-03,-7.142691349743966918e-03,-9.778136339764483681e-03,-1.208804775187472674e-02,-1.393937197120199978e-02,-1.523409497572857270e-02,-1.592445315043262630e-02,-1.601880396828599118e-02,-1.557919599754098959e-02,-1.471368513028710641e-02,-1.356630188370777645e-02,-1.230483387806200618e-02,-1.110486213708208880e-02,-1.013060629711824007e-02,-9.516761330343617362e-03,-9.356243638254191017e-03,-9.695568496042757112e-03,-1.053578915190367220e-02,-1.183588358947930581e-02,-1.351687662357476359e-02,-1.546695673372305499e-02,-1.754952875614153654e-02,-1.961645079817872853e-02,-2.152624700641339595e-02,-2.316300468392627071e-02,-2.444999460748775028e-02,-2.535507058434310554e-02,-2.588938947930357476e-02,-2.610252702112094217e-02,-2.607596601295883096e-02,-2.591571927519708760e-02,-2.574368834959276167e-02,-2.568624258967628499e-02,-2.585915329187128686e-02,-2.635062155220947722e-02,-2.720615164039532491e-02,-2.841848317242066241e-02,-2.992360400518360997e-02,-3.160200167001777499e-02,-3.328342220441031507e-02,-3.475377295979073522e-02,-3.576484564244683528e-02,-3.604950372930985913e-02,-3.534392808906409306e-02,-3.341471314141315763e-02,-3.008601166599580989e-02,-2.526281785017417750e-02,-1.894836983936141681e-02,-1.125414350996919825e-02,-2.401285815249618646e-03,7.286476238834565036e-03,1.739806333714535858e-02,2.745880984888286747e-02,3.696251618774803321e-02,4.540814886623022878e-02,5.233445302279909894e-02,5.734682464476365676e-02,6.013565486366308221e-02,6.048996476794383376e-02,5.831138656297612383e-02,5.363107761038474197e-02,4.662713292946464583e-02,3.763504746234727638e-02,2.714292573345487153e-02,1.576793433941115971e-02,4.216866053629395733e-03,-6.762317782412261176e-03,-1.642955983233199829e-02,-2.409538470395327855e-02,-2.915506900995946948e-02,-3.111641060264454944e-02,-2.962227451031921449e-02,-2.446642110804467599e-02,-1.560320346028591654e-02,-3.156595917346037561e-03,1.256629623059395476e-02,3.105877087084866692e-02,5.160283628024849023e-02,7.327116300417405026e-02,9.494884214470782069e-02,1.153765792246801564e-01,1.332116190229688801e-01,1.470989015665701560e-01,1.557452699919824879e-01,1.579929778186149048e-01,1.528910524057767450e-01,1.397627043931000124e-01,1.182672810199486141e-01,8.845626557390370848e-02,5.081821403166721096e-02,6.297538677268025610e-03,-4.373244219581938486e-02,-9.755356838245418660e-02,-1.532375789237334640e-01,-2.088064094222796263e-01,-2.623845399218811547e-01,-3.123170367580753726e-01,-3.572423413026050709e-01,-3.961225870807394411e-01,-4.282424827422611768e-01,-4.531892835132252939e-01,-4.708221668734538512e-01,-4.812347878023766623e-01,0.000000000000000000e+00,0.000000000000000000e+00,0.000000000000000000e+00,0.000000000000000000e+00,0.000000000000000000e+00,0.000000000000000000e+00,0.000000000000000000e+00,0.000000000000000000e+00,0.000000000000000000e+00,0.000000000000000000e+00,0.000000000000000000e+00,0.000000000000000000e+00,0.000000000000000000e+00,0.000000000000000000e+00,0.000000000000000000e+00,0.000000000000000000e+00,0.000000000000000000e+00,0.000000000000000000e+00,0.000000000000000000e+00,0.000000000000000000e+00,0.000000000000000000e+00,0.000000000000000000e+00,0.000000000000000000e+00,0.000000000000000000e+00,0.000000000000000000e+00,0.000000000000000000e+00,0.000000000000000000e+00,0.000000000000000000e+00,0.000000000000000000e+00,0.000000000000000000e+00,0.000000000000000000e+00,0.000000000000000000e+00,0.000000000000000000e+00,0.000000000000000000e+00,0.000000000000000000e+00,0.000000000000000000e+00,0.000000000000000000e+00,0.000000000000000000e+00,0.000000000000000000e+00,0.000000000000000000e+00,0.000000000000000000e+00,0.000000000000000000e+00,0.000000000000000000e+00,0.000000000000000000e+00,0.000000000000000000e+00,0.000000000000000000e+00,0.000000000000000000e+00,0.000000000000000000e+00,0.000000000000000000e+00,0.000000000000000000e+00,0.000000000000000000e+00,0.000000000000000000e+00,0.000000000000000000e+00,0.000000000000000000e+00,0.000000000000000000e+00,0.000000000000000000e+00,0.000000000000000000e+00,0.000000000000000000e+00,0.000000000000000000e+00,0.000000000000000000e+00,0.000000000000000000e+00,0.000000000000000000e+00,0.000000000000000000e+00,0.000000000000000000e+00,0.000000000000000000e+00,0.000000000000000000e+00,0.000000000000000000e+00,0.000000000000000000e+00,0.000000000000000000e+00,0.000000000000000000e+00,0.000000000000000000e+00,0.000000000000000000e+00,0.000000000000000000e+00,0.000000000000000000e+00,0.000000000000000000e+00,0.000000000000000000e+00,0.000000000000000000e+00,0.000000000000000000e+00,0.000000000000000000e+00,0.000000000000000000e+00,0.000000000000000000e+00,0.000000000000000000e+00,0.000000000000000000e+00,0.000000000000000000e+00,0.000000000000000000e+00,0.000000000000000000e+00,0.000000000000000000e+00,0.000000000000000000e+00,0.000000000000000000e+00,0.000000000000000000e+00,0.000000000000000000e+00,0.000000000000000000e+00,0.000000000000000000e+00,0.000000000000000000e+00,0.000000000000000000e+00,0.000000000000000000e+00
-4.847134433721548286e-01,-4.816937761827003173e-01,-4.727200009307588879e-01,-4.584123796688286401e-01,-4.394487678994054569e-01,-4.165614216611380205e-01,-3.905432386937342515e-01,-3.622531435837279545e-01,-3.326094370282035029e-01,-3.025625415580441846e-01,-2.730457465223840585e-01,-2.449119458440165154e-01,-2.188708335867979027e-01,-1.954416604236643151e-01,-1.749313343439625190e-01,-1.574385486944554213e-01,-1.428769671066333902e-01,-1.310087441209985271e-01,-1.214824055962097915e-01,-1.138721608803291013e-01,-1.077176485834868691e-01,-1.025634922472512395e-01,-9.799615031720501634e-02,-9.367400746873823236e-02,-8.934853448119407793e-02,-8.487708956170524066e-02,-8.022771623152742670e-02,-7.547463572058610293e-02,-7.078304264016373193e-02,-6.638289331882041289e-02,-6.253310500523998061e-02,-5.948065352283557483e-02,-5.742138816838771032e-02,-5.646830611654942572e-02,-5.663072303205102243e-02,-5.780729289023954498e-02,-5.979526614024845144e-02,-6.231516614369535245e-02,-6.504611622560933781e-02,-6.766534474078586547e-02,-6.988572920765499796e-02,-7.148590406206931092e-02,-7.232861367286146093e-02,-7.236592698482650909e-02,-7.163355136784985144e-02,-7.023793799777129643e-02,-6.833905004950788231e-02,-6.613097844720486340e-02,-6.382238817017985011e-02,-6.161772340589638519e-02,-5.969922539235815451e-02,-5.821096089691778219e-02,-5.724745240594342199e-02,-5.684844288794396738e-02,-5.699903871946813971e-02,-5.763332240380037580e-02,-5.863964861144045637e-02,-5.986718262622707509e-02,-6.113537577080233737e-02,-6.224862660466143338e-02,-6.301616053554820462e-02,-6.327409238898261401e-02,-6.290520312570066497e-02,-6.185310567965873751e-02,-6.013006986361507655e-02,-5.781946478758592800e-02,-5.507326655927900771e-02,-5.210330964525013153e-02,-4.916402582885190387e-02,-4.652561380988478462e-02,-4.443955083231371228e-02,-4.310200575027011566e-02,-4.262352211104361577e-02,-4.301328502208767723e-02,-4.418242062380029617e-02,-4.596395139743154196e-02,-4.814051927187633362e-02,-5.047027107876597696e-02,-5.270724068643886651e-02,-5.461834952368128937e-02,-5.599972527458149663e-02,-5.669250605414186128e-02,-5.659651152267993618e-02,-5.568034129981622171e-02,-5.398714531696079816e-02,-5.163513174372893338e-02,-4.881178265477805617e-02,-4.576124882340724953e-02,-4.276436914450487681e-02,-4.011097368793652834e-02,-3.806647827731594880e-02,-3.683839521009502072e-02,-3.655067680882616299e-02,-3.723270524332442794e-02,-3.882399022916611930e-02,-4.118808038742333838e-02,-4.412741600718341622e-02,-4.739692009229492381e-02,-5.071981249253037366e-02,-5.380832595638405241e-02,-5.638805688030393976e-02,-5.822247843281930235e-02,-5.913444912871072823e-02,-5.902270648697341415e-02,-5.787188554676482577e-02,-5.575493698106533808e-02,-5.282778449100798690e-02,-4.931688049254236150e-02,-4.550012374777401974e-02,-4.168130646472861800e-02,-3.815945491370191511e-02,-3.519715422707463820e-02,-3.299368589168390903e-02,-3.166720168222801612e-02,-3.124678458082355559e-02,-3.167332293192481191e-02,-3.280784948077510726e-02,-3.444587717917992759e-02,-3.633659942991544767e-02,-3.820699299589246783e-02,-3.979038871537221578e-02,-4.085567337372429664e-02,-4.123116663672722615e-02,-4.081966511302202727e-02,-3.960477713653087761e-02,-3.764983377573715567e-02,-3.509042149818600298e-02,-3.212152731829456126e-02,-2.897968797552484543e-02,-2.591933289294015563e-02,-2.318363189151293954e-02,-2.097484191355581881e-02,-1.943225590263707517e-02,-1.862263342809248115e-02,-1.854182929055844808e-02,-1.912307522093489170e-02,-2.024776302159142505e-02,-2.175675608016129983e-02,-2.346290252183821923e-02,-2.516679533992365048e-02,-2.667654073766193012e-02,-2.782923699885731308e-02,-2.850949123001663907e-02,-2.866021365797937273e-02,-2.828293952141432144e-02,-2.742839692529128182e-02,-2.618173128109002601e-02,-2.464809032234653585e-02,-2.294181542410113003e-02,-2.117851972921365802e-02,-1.946737283696272497e-02,-1.790188336010491849e-02,-1.654958107507112364e-02,-1.544276035335004002e-02,-1.457335509943227456e-02,-1.389427124064348575e-02,-1.332681979173648903e-02,-1.277118355539988252e-02,-1.211697695254840799e-02,-1.125364025336309318e-02,-1.008176548545592494e-02,-8.524800567547324154e-03,-6.539093375867673086e-03,-4.121113154835450917e-03,-1.311555354479840719e-03,1.804651987106685451e-03,5.103652109329968878e-03,8.433563495372815508e-03,1.163062951902493584e-02,1.453956643874724716e-02,1.703530709488969286e-02,1.904147945022750810e-02,2.054050255736343186e-02,2.157218863770603290e-02,2.222260129020278349e-02,2.260960488725698159e-02,2.287111783277756202e-02,2.315696783436263506e-02,2.362110001374825158e-02,2.441087216759516010e-02,2.565296115345102115e-02,2.743849893522838645e-02,2.981115802337600679e-02,3.276034886600932838e-02,3.621968065480241084e-02,4.007053216644784754e-02,4.415143714323492563e-02,4.827430679525986784e-02,5.224714413102211213e-02,5.589991948337398597e-02,5.910730357075312524e-02,6.180131083431040367e-02,6.397039576119893656e-02,6.564804038760505001e-02,6.689839073916062362e-02,6.780575268133150202e-02,6.847096377219925867e-02,6.901373665799873103e-02,6.957638721831405082e-02,7.032228713067333048e-02,7.142453020663465380e-02,7.304577438647184839e-02,7.531507834051487382e-02,7.830893223874121900e-02,8.204086113763385535e-02,8.645920821764140063e-02,9.145015451933916073e-02,9.684406563394901135e-02,1.024257755882083537e-01,1.079509917887112591e-01,1.131697392530115892e-01,1.178536629089468879e-01,1.218207789856150663e-01,1.249524750527199191e-01,1.272015815994758103e-01,1.285931603635595555e-01,1.292202222554752755e-01,1.292358362105186786e-01,1.288414677083083437e-01,1.282701512967463764e-01,1.277641802259283643e-01,1.275500160597978494e-01,1.278151061702945401e-01,1.286900600696655739e-01,1.302368033076494458e-01,1.324422536651418403e-01,1.352178757459459590e-01,1.384058512544313613e-01,1.417922537282943762e-01,1.451274383139996849e-01,1.481529505134556446e-01,1.506316665257309284e-01,1.523754954114215632e-01,1.532655617626774158e-01,1.532629314432921164e-01,1.524105993436621065e-01,1.508278964536451938e-01,1.486975333033306590e-01,1.462451713273950071e-01,1.437133015774600675e-01,1.413340786081793143e-01,1.393059888213882824e-01,1.377765143401220860e-01,1.368309541724709311e-01,1.364875446925217228e-01,1.366988214493836673e-01,1.373579509730337989e-01,1.383082862387506884e-01,1.393559280197993189e-01,1.402866652399754610e-01,1.408872298136691625e-01,1.409673729302398093e-01,1.403784047096462428e-01,1.390263384623001419e-01,1.368797221235366068e-01,1.339721031162802722e-01,1.303989718277654419e-01,1.263096429370446916e-01,1.218947889244908628e-01,1.173702826592824960e-01,1.129582560796061896e-01,1.088663849520499077e-01,1.052661939076381531e-01,1.022720133566305811e-01,9.992442528721927342e-02,9.818305983535931258e-02,9.693149863211997230e-02,9.599369056826044522e-02,9.515947019227039005e-02,9.421579630719345566e-02,9.297826810602234648e-02,9.131605650520957518e-02,8.916568837271120207e-02,8.653385864438264963e-02,8.349251531503922019e-02,8.016948558364327126e-02,7.673620381176431138e-02,7.339189033075854685e-02,7.034247452598035855e-02,6.777453480950350329e-02,6.582859565836218785e-02,6.457843388273762364e-02,6.402115770849586829e-02,6.407842682143653767e-02,6.460590132582040568e-02,6.540773416965318943e-02,6.625457354322146497e-02,6.690473405016510167e-02,6.712777594711205609e-02,6.672821519561700221e-02,6.556567488195824689e-02,6.356790280661035741e-02,6.073537440358109385e-02,5.713926848541058673e-02,5.291572502944782985e-02,4.825751766402060217e-02,4.340180421383846299e-02,3.861168377449922251e-02,3.415028629791472953e-02,3.024936476799067880e-02,2.707875264523147696e-02,2.472484917073783720e-02,2.318358446536934389e-02,2.236825576919252573e-02,2.212834576927131744e-02,2.227370923639076725e-02,2.259916548272767819e-02,2.290603086868920474e-02,2.301866445092860120e-02,2.279591537613905733e-02,2.213881393564214040e-02,2.099582821877693517e-02,1.936613179380900635e-02,1.730081866090885448e-02,1.490161696921768128e-02,1.231618181113954512e-02,9.729319629889179172e-03,7.350200205109892054e-03,5.395269071862543106e-03,4.066190599214382015e-03,3.524595520918471711e-03,3.869262652006806233e-03,5.121479177065913976e-03,7.220014373636112794e-03,1.002360529466385375e-02,1.331959937224144741e-02,1.683978196399871577e-02,2.028408967850324832e-02,2.335001982740422116e-02,2.576332851554656231e-02,2.730512771486424961e-02,2.783110809308791955e-02,2.728072877203721602e-02,2.567748381522505507e-02,2.312330632936347025e-02,1.978930024255562761e-02,1.590293691500304848e-02,1.173095946957324401e-02,7.557852648031166375e-03,3.661097906439442912e-03,2.859228176861493449e-04,-2.376991954451636389e-03,-4.207919126072419067e-03,-5.166833552391609900e-03,-5.293826971267338866e-03,-4.701755943440877675e-03,-3.562647701085602716e-03,-2.088996832086353894e-03,-5.100798665727051748e-04,9.559046056273928955e-04,2.129758923164434044e-03,2.892031656811386298e-03,3.191050519182723685e-03,3.038700290824939733e-03,2.498458466345069608e-03,1.669961668391632377e-03,6.730899226466760532e-04,-3.664008629046039064e-04,-1.329146718405393567e-03,-2.112613597443352767e-03,-2.638984183551659150e-03,-2.859035349090770835e-03,-2.751954955040073966e-03,-2.322790909096514138e-03,-1.599316786673530069e-03,-6.295787529472904494e-04,5.187868351601927688e-04,1.757393927880620751e-03,2.976329008303688680e-03,4.047542256538296142e-03,4.834726975079806088e-03,5.207876806966444359e-03,5.057567500333925992e-03,4.305060098681527669e-03,2.908169487859089009e-03,8.653974332052591627e-04,-1.779662886458955717e-03,-4.933966525417880777e-03,-8.453372600722975500e-03,-1.214714794638893300e-02,-1.579042872689743332e-02,-1.914362271359655587e-02,-2.197557231729933142e-02,-2.408672102642947163e-02,-2.532950332393041695e-02,-2.562473285152130215e-02,-2.497345213828975827e-02,-2.346292635751958539e-02,-2.126409628010871716e-02,-1.861765426504093102e-02,-1.580811023112263514e-02,-1.312917760093520320e-02,-1.084756269634199605e-02,-9.173408345458372928e-03,-8.243073702585349341e-03,-8.114757196925335633e-03,-8.772412357865405977e-03,-1.013212482415890708e-02,-1.204940061629978382e-02,-1.433099399168224347e-02,-1.675408378710647322e-02,-1.908998022024813168e-02,-2.112674766370783302e-02,-2.268780450280989333e-02,-2.364701738852510726e-02,-2.394116182802542500e-02,-2.357891286050507740e-02,-2.264387095427912097e-02,-2.128841024674069798e-02,-1.971660012300546772e-02,-1.815845758586234066e-02,-1.684139445390479828e-02,-1.596452248690854656e-02,-1.567832641544211064e-02,-1.606989123544193612e-02,-1.715386595420210700e-02,-1.887013415763130059e-02,-2.108924869333155677e-02,-2.362588256947806276e-02,-2.625927244463690385e-02,-2.875808434228019350e-02,-3.090568251797005950e-02,-3.252170872015013731e-02,-3.347790604540780424e-02,-3.370890512568498754e-02,-3.322006221100765738e-02,-3.209312284740443305e-02,-3.048690296380774517e-02,-2.862737241343048938e-02,-2.678354408561893843e-02,-2.523223120146190004e-02,-2.422034270096588837e-02,-2.393313912584493428e-02,-2.447223130914259748e-02,-2.584343416272660149e-02,-2.795464876021557313e-02,-3.062493279347578215e-02,-3.360446865553258500e-02,-3.660291022955177581e-02,-3.932319262821107331e-02,-4.149731384558557473e-02,-4.291802303029379484e-02,-4.345944674014125958e-02,-4.308380056372822231e-02,-4.183718401119226882e-02,-3.983978951249789180e-02,-3.727397705748138057e-02,-3.437022982720195491e-02,-3.138872254959022140e-02,-2.859509687098514205e-02,-2.623301762536551715e-02,-2.449952907698538934e-02,-2.352805571607103838e-02,-2.337946671677015170e-02,-2.403907071460013173e-02,-2.541824709882702787e-02,-2.736096866712603437e-02,-2.965582444576508533e-02,-3.205378379525221366e-02,-3.429152305510330817e-02,-3.611897186440091168e-02,-3.732755039100797007e-02,-3.777424127720524494e-02,-3.739762473673933357e-02,-3.622426369498017024e-02,-3.436596152804459459e-02,-3.200965478756231247e-02,-2.940100376696452161e-02,-2.682060794459666803e-02,-2.455174754926563868e-02,-2.284295924838769878e-02,-2.187392019990292563e-02,-2.173323367577477405e-02,-2.241160870845876341e-02,-2.380855957283054339e-02,-2.574860002172520146e-02,-2.800355941329362580e-02,-3.031903721711342106e-02,-3.244360131536029590e-02,-3.415862800670159405e-02,-3.530488147806840060e-02,-3.580034318312168284e-02,-3.564506350948924707e-02,-3.491363792136316369e-02,-3.374014185729650589e-02,-3.229984338844470171e-02,-3.078868937646764975e-02,-2.940015048341692444e-02,-2.830076130488622804e-02,-2.760852567689229750e-02,-2.737993049490892658e-02,-2.760945339323567227e-02,-2.823991572373229370e-02,-2.917751892468650743e-02,-3.030603431892523597e-02,-3.149756019057674966e-02,-3.261916701952488618e-02,-3.353707944888767445e-02,-3.412269024275282892e-02,-3.426386657629458543e-02,-3.388019297403605662e-02,-3.293659283617795391e-02,-3.145009977554649033e-02,-2.948875503182301835e-02,-2.716542582616865431e-02,-2.462946767448556673e-02,-2.205680854816732123e-02,-1.963726085573140601e-02,-1.755787790043367505e-02,-1.598294345825846188e-02,-1.503397419983745070e-02,-1.477462458022647633e-02,-1.520363711195692191e-02,-1.625546499026429142e-02,-1.780626514075173139e-02,-1.968361952024908976e-02,-2.168014149121103365e-02,-2.357220251597666461e-02,-2.514400855955449890e-02,-2.621433463936022334e-02,-2.666021398559129466e-02,-2.643116281560931036e-02,-2.555047394645159828e-02,-2.410485608968757423e-02,-2.222661052025726516e-02,-2.007331163054097353e-02,-1.781049920940361991e-02,-1.560178891236704835e-02,-1.360572016548502149e-02,-1.197303744354449515e-02,-1.083845055167114921e-02,-1.030725051967040264e-02,-1.044205757037036317e-02,-1.125392253979961427e-02,-1.269872041848045356e-02,-1.467867048766616916e-02,-1.704911053809902641e-02,-1.963065907728592935e-02,-2.222677234298363683e-02,-2.464557081773228672e-02,-2.672193741852395971e-02,-2.833429402192623459e-02,-2.941285321085037111e-02,-2.993957868610109749e-02,-2.994144589097179690e-02,-2.947975816022484902e-02,-2.863975601519316155e-02,-2.752317453140829331e-02,-2.624206525424450237e-02,-2.491011401651149412e-02,-2.363024364749836959e-02,-2.248142555793043729e-02,-2.150889434040325482e-02,-2.071975279375647128e-02,-2.008354491550744594e-02,-1.953707816928390920e-02,-1.899377574046494377e-02,-1.835811385294286446e-02,-1.754420934934934270e-02,-1.649524945896716985e-02,-1.519869190818645341e-02,-1.369219478116182574e-02,-1.205834836507453829e-02,-1.041112719075810468e-02,-8.879139368225177215e-03,-7.589348242903298271e-03,-6.653384513930962058e-03,-6.157583781378386800e-03,-6.156270870058695374e-03,-6.667250811053054144e-03,-7.670141198804633458e-03,-9.109224703428130815e-03,-1.090058105768369062e-02,-1.294073590689695692e-02,-1.511423457651564321e-02,-1.729962068633863342e-02,-1.937476913833149905e-02,-2.122307978645473353e-02,-2.274163556451273480e-02,-2.385028979003690416e-02,-2.449808254386221656e-02,-2.466340835305109308e-02,-2.434791450901443305e-02,-2.356836065784768605e-02,-2.235171716349926285e-02,-2.073592408349786073e-02,-1.877468759323570185e-02,-1.654237389510741438e-02,-1.413571622929689527e-02,-1.167169501581205755e-02,-9.282579821747322102e-03,-7.108140355508173885e-03,-5.284048496486445229e-03,-3.927017158567847749e-03,-3.119394231329804430e-03,-2.896408514898192281e-03,-3.238748412160052242e-03,-4.072513640572740512e-03,-5.277325174597714136e-03,-6.701506735612098448e-03,-8.181462035555187723e-03,-9.561557345852638237e-03,-1.071160258844201449e-02,-1.154029178335941493e-02,-1.200334046747722830e-02,-1.210540912032803326e-02,-1.189584539574857665e-02,-1.145865369617890366e-02,-1.089718592398844152e-02,-1.031558011214278592e-02,-9.801209785516344641e-03,-9.412431911772057777e-03,-9.173439519040704759e-03,-9.075495933252707148e-03,-9.082089476398972142e-03,-9.134493337183951372e-03,-9.155203570015306436e-03,-9.049942256331704182e-03,-8.712062132019667351e-03,-8.033667698813891714e-03,-6.924252356314793307e-03,-5.331728571227858406e-03,-3.256586852521249024e-03,-7.514619233612218271e-04,2.093943087266817490e-03,5.174252885109877596e-03,8.385704020821581339e-03,1.163374145763292067e-02,1.483251494907592179e-02,1.790221273468071972e-02,2.076886493434727810e-02,2.336682695449338737e-02,2.564220777322522710e-02,2.755689673504630247e-02,2.909366102139810534e-02,3.026156376416097929e-02,3.109985073485653853e-02,3.167871563499841114e-02,3.209607464789544784e-02,3.246996230122027594e-02,3.292690922048501639e-02,3.358791227118784056e-02,3.455468496871574868e-02,3.589922424228651071e-02,3.765891843136555395e-02,3.983728355704186513e-02,4.240811143093977525e-02,4.531996910084444552e-02,4.849906212039938741e-02,5.185087316454742301e-02,5.526336698379911289e-02,5.861485741808089567e-02,6.178698064064164913e-02,6.467993661401216787e-02,6.722643131384123394e-02,6.940228019749763999e-02,7.123252380770096759e-02,7.279130669033676004e-02,7.419353370383664770e-02,7.557772689050258619e-02,7.708240853253828240e-02,7.882182704755515135e-02,8.086824709721568416e-02,8.324512277674277205e-02,8.593057759914507487e-02,8.886773213460975873e-02,9.197800224793398205e-02,9.517394300309442445e-02,9.836953136309398160e-02,1.014877283611805292e-01,1.044656160104149439e-01,1.072564814544767625e-01,1.098286426506161345e-01,1.121626444520843480e-01,1.142494692325322775e-01,1.160915478188245531e-01,1.177056863124324032e-01,1.191242623654869548e-01,1.203912923362194520e-01,1.215533731266686124e-01,1.226486359284096883e-01,1.236977355758084318e-01,1.247001582682041448e-01,1.256371606294962029e-01,1.264796830788552928e-01,1.271970076931102089e-01,1.277619388212223317e-01,1.281517403526201138e-01,1.283477430337237601e-01,1.283358519571685119e-01,1.281064893060413490e-01,1.276515800247576826e-01,1.269587503257019190e-01,1.260046126667324351e-01,1.247490735809776152e-01,1.231334747276469771e-01,1.210859269405468869e-01,1.185343988242827246e-01,1.154230407866446845e-01,1.117246284258156114e-01,1.074450533794062412e-01,1.026215970833675439e-01,9.731922350996125015e-02,9.162686357321012109e-02,8.565216728755475906e-02,7.951133756692617405e-02,7.331209750180808782e-02,6.713366354222292942e-02,6.101398368920357695e-02,5.495353610188462301e-02,4.893504204145771030e-02,4.294843668152997784e-02,3.700921506823094675e-02,3.116451570633182663e-02,2.548814212008686936e-02,2.006984806173015695e-02,1.500512587406384497e-02,1.038855760878263507e-02,6.308590351485519714e-03,2.839689810699935844e-03,3.089856529537790553e-05,-2.106179190148645217e-03,-3.605851124890723392e-03,-4.550710552508678043e-03,-5.067520976358795733e-03,-5.317743767232733718e-03,-5.484214779386304903e-03,-5.754907506427157232e-03,-6.304647219187299416e-03,-7.277068491929498256e-03,-8.770251060548395899e-03,-1.082805026446023722e-02,-1.343644615111865871e-02,-1.652340109759819695e-02,-1.996211207257021086e-02,-2.357876384299665770e-02,-2.716558193859402656e-02,-3.049931942250626651e-02,-3.336494277563401001e-02,-3.558248307288788825e-02,-3.703136529586431580e-02,-3.766500919087865940e-02,-3.751252777162553120e-02,-3.667026358116183549e-02,-3.528751143411710395e-02,-3.354855823741809129e-02,-3.165177142338056887e-02,-2.978696044485069222e-02,-2.811340180182943238e-02,-2.674268837566886811e-02,-2.573173269709706085e-02,-2.508882662121202436e-02,-2.478943438459866103e-02,-2.479327257191997133e-02,-2.505526989904008350e-02,-2.552914111522344709e-02,-2.616740292550518571e-02,-2.692192479448154291e-02,-2.774667672278222086e-02,-2.860216275865360563e-02,-2.945937161235024498e-02,-3.030069686391193354e-02,-3.111727827279857014e-02,-3.190448049816850540e-02,-3.265727919070365165e-02,-3.336610160701043021e-02,-3.401257634814887354e-02,-3.456392095014869381e-02,-3.496576948483920422e-02,-3.513653754520038031e-02,-3.496808924679623704e-02,-3.433433335563926270e-02,-3.310454066577761534e-02,-3.115683989781273255e-02,-2.838982043916688652e-02,-2.473269439008118908e-02,-2.015468672183732754e-02,-1.467327999994448053e-02,-8.360789479465637747e-03,-1.349560656569902262e-03,6.164077654137694109e-03,1.391837311633853727e-02,2.158917748483893048e-02,2.879904573384972633e-02,3.513394519926889975e-02,4.016899729069490360e-02,4.350349787625974046e-02,4.480370865486544424e-02,4.384966869453420929e-02,4.057870077520019103e-02,3.511521298312010597e-02,2.777826647681512495e-02,1.906588133306804170e-02,9.622883267721107914e-03,2.019067875423041173e-04,-8.376370109268515413e-03,-1.526460932383374297e-02,-1.963641660540965672e-02,-2.074199764906353022e-02,-1.796917939163415398e-02,-1.090568344463079334e-02,6.017147352455293283e-04,1.639722389807742389e-02,3.598275601568326487e-02,5.850778374748358962e-02,8.278636368547688529e-02,1.073432131987475252e-01,1.304886802235675769e-01,1.504195851350238755e-01,1.653389739809698888e-01,1.735832042443219148e-01,1.737419441109366858e-01,1.647595215553999681e-01,1.460146562209340138e-01,1.173828549816532257e-01,7.928323781514104440e-02,3.270027848238725443e-02,-2.083811126988560636e-02,-7.934274783933739639e-02,-1.405088657371455496e-01,-2.019083476840375646e-01,-2.611934167293817333e-01,-3.162727338985725223e-01,-3.654337767772043444e-01,-4.074054289958332076e-01,-4.413709088179457729e-01,-4.669474878998605138e-01,-4.841450814015185733e-01,-4.933074572953983217e-01,0.000000000000000000e+00,0.000000000000000000e+00,0.000000000000000000e+00,0.000000000000000000e+00,0.000000000000000000e+00,0.000000000000000000e+00,0.000000000000000000e+00,0.000000000000000000e+00,0.000000000000000000e+00,0.000000000000000000e+00,0.000000000000000000e+00,0.000000000000000000e+00,0.000000000000000000e+00,0.000000000000000000e+00,0.000000000000000000e+00,0.000000000000000000e+00,0.000000000000000000e+00,0.000000000000000000e+00,0.000000000000000000e+00,0.000000000000000000e+00,0.000000000000000000e+00,0.000000000000000000e+00,0.000000000000000000e+00,0.000000000000000000e+00,0.000000000000000000e+00,0.000000000000000000e+00,0.000000000000000000e+00,0.000000000000000000e+00,0.000000000000000000e+00,0.000000000000000000e+00,0.000000000000000000e+00,0.000000000000000000e+00,0.000000000000000000e+00,0.000000000000000000e+00,0.000000000000000000e+00,0.000000000000000000e+00,0.000000000000000000e+00,0.000000000000000000e+00,0.000000000000000000e+00,0.000000000000000000e+00,0.000000000000000000e+00,0.000000000000000000e+00,0.000000000000000000e+00,0.000000000000000000e+00,0.000000000000000000e+00,0.000000000000000000e+00,0.000000000000000000e+00,0.000000000000000000e+00,0.000000000000000000e+00,0.000000000000000000e+00,0.000000000000000000e+00,0.000000000000000000e+00,0.000000000000000000e+00,0.000000000000000000e+00,0.000000000000000000e+00,0.000000000000000000e+00,0.000000000000000000e+00,0.000000000000000000e+00,0.000000000000000000e+00,0.000000000000000000e+00,0.000000000000000000e+00,0.000000000000000000e+00,0.000000000000000000e+00,0.000000000000000000e+00,0.000000000000000000e+00,0.000000000000000000e+00,0.000000000000000000e+00,0.000000000000000000e+00,0.000000000000000000e+00,0.000000000000000000e+00,0.000000000000000000e+00,0.000000000000000000e+00,0.000000000000000000e+00,0.000000000000000000e+00,0.000000000000000000e+00,0.000000000000000000e+00,0.000000000000000000e+00,0.000000000000000000e+00,0.000000000000000000e+00,0.000000000000000000e+00,0.000000000000000000e+00,0.000000000000000000e+00,0.000000000000000000e+00,0.000000000000000000e+00,0.000000000000000000e+00,0.000000000000000000e+00,0.000000000000000000e+00,0.000000000000000000e+00
-4.950370858742889069e-01,-4.901095698158013936e-01,-4.793893779396707910e-01,-4.637590725183458051e-01,-4.440702015456602925e-01,-4.211189964619820869e-01,-3.956448728241687141e-01,-3.683442192357970768e-01,-3.398879817284591875e-01,-3.109323380897386357e-01,-2.821167617467749689e-01,-2.540489753957125840e-01,-2.272806725595622468e-01,-2.022818505643289022e-01,-1.794218249578342916e-01,-1.589603066286543187e-01,-1.410476181983098820e-01,-1.257322970905704884e-01,-1.129739536217365670e-01,-1.026580539361850730e-01,-9.461011110767718335e-02,-8.860960187949230848e-02,-8.440470741718199277e-02,-8.172681836159320645e-02,-8.030219503779419121e-02,-7.985876356046732460e-02,-8.012793464197866256e-02,-8.084437894588436535e-02,-8.174905729467171756e-02,-8.259931897605965467e-02,-8.318493938507962038e-02,-8.334476619634721695e-02,-8.297835069183079337e-02,-8.204972953478383013e-02,-8.058355354077370580e-02,-7.865547236626954652e-02,-7.637927201061628368e-02,-7.389319895412131689e-02,-7.134689569493106454e-02,-6.888819907921454877e-02,-6.664797856551504807e-02,-6.472440337897789053e-02,-6.317266778550589823e-02,-6.200482743998288887e-02,-6.119726975068338903e-02,-6.069914348900288387e-02,-6.043787181921286833e-02,-6.032314249000939044e-02,-6.025315745071908174e-02,-6.012541613712416022e-02,-5.985081093498438587e-02,-5.936678482675002144e-02,-5.864497145982318360e-02,-5.769152171473661272e-02,-5.654195927016166662e-02,-5.525413043938008639e-02,-5.390172655615030339e-02,-5.256852261378431451e-02,-5.134211888793845102e-02,-5.030638097651893986e-02,-4.953334617862274747e-02,-4.907636426282833975e-02,-4.896538924550547511e-02,-4.920430073919457997e-02,-4.977050947809853743e-02,-5.061684949225322971e-02,-5.167392195166775615e-02,-5.285121318294659643e-02,-5.403877412258169255e-02,-5.511318263503565962e-02,-5.594863857784563438e-02,-5.642985461753579485e-02,-5.646245461067304211e-02,-5.597890263778668163e-02,-5.494111934428839300e-02,-5.334319663603500489e-02,-5.121741099903050209e-02,-4.864300515566605254e-02,-4.575235043537937557e-02,-4.272782440156113609e-02,-3.978666400450237006e-02,-3.715672328963276483e-02,-3.504902102225795901e-02,-3.363265293534752065e-02,-3.301636187034104331e-02,-3.323912658733629844e-02,-3.426896568007969240e-02,-3.600722596249547602e-02,-3.829717947869609035e-02,-4.093849757945049184e-02,-4.370906370917482936e-02,-4.639169475114223590e-02,-4.879932503760116280e-02,-5.079249063655587315e-02,-5.228696461209116075e-02,-5.325293470492763193e-02,-5.370844911125487176e-02,-5.370963879251303141e-02,-5.333857923060103534e-02,-5.268825191834027727e-02,-5.184583669917329496e-02,-5.087886719041208317e-02,-4.982882946248697043e-02,-4.871358995777590878e-02,-4.753692581828367764e-02,-4.630073286416600681e-02,-4.501373608152554190e-02,-4.369301946106232681e-02,-4.236057624333867261e-02,-4.104031854828003867e-02,-3.975862285314755995e-02,-3.854686197947416321e-02,-3.744254963087798038e-02,-3.648761267555714061e-02,-3.572445002123281893e-02,-3.519088144433876048e-02,-3.491489679966567478e-02,-3.490991747305598886e-02,-3.517083684314088743e-02,-3.567064604730309924e-02,-3.635798936520921731e-02,-3.715746518363215872e-02,-3.797447461101832039e-02,-3.870432016737981179e-02,-3.924365500497201814e-02,-3.950187415417746178e-02,-3.940961610426053918e-02,-3.892264954789749487e-02,-3.802266135939830899e-02,-3.671809439530184654e-02,-3.504569564390491027e-02,-3.307024354803489441e-02,-3.088011098172807958e-02,-2.857928830820673227e-02,-2.627898663957562927e-02,-2.409166152586190643e-02,-2.212753267453456893e-02,-2.049116022145792276e-02,-1.927572113077828664e-02,-1.855480310412301395e-02,-1.837395208047361977e-02,-1.874538394482877512e-02,-1.964770591821862408e-02,-2.102879650635290296e-02,-2.280802591680023902e-02,-2.487555460276015540e-02,-2.708898553577565940e-02,-2.926991202979171633e-02,-3.120577526921831935e-02,-3.266359735602794578e-02,-3.341786725574955735e-02,-3.328674756732540041e-02,-3.216510564623218521e-02,-3.004412361686112018e-02,-2.701397775249481450e-02,-2.325257700286281759e-02,-1.900554234426313910e-02,-1.456094337912069644e-02,-1.021938239260764859e-02,-6.259158176499846765e-03,-2.900018534047271983e-03,-2.746909456454956801e-04,1.582350234043128356e-03,2.727170044666828077e-03,3.287001209976601543e-03,3.438539267574901043e-03,3.388324887834379649e-03,3.354675786506962961e-03,3.549772100555878378e-03,4.161599186271834963e-03,5.336251154537324098e-03,7.162395722737733596e-03,9.660901668913465801e-03,1.278152871828493187e-02,1.640657172209969081e-02,2.036129879952958827e-02,2.443165419638916591e-02,2.838848321815035797e-02,3.201518643953221721e-02,3.513430523366268404e-02,3.762860377970262543e-02,3.945311646386815557e-02,4.063641695121978509e-02,4.127222522205342692e-02,4.150499846824157180e-02,4.151366222936501982e-02,4.149619911346762169e-02,4.165557787651965466e-02,4.218577645781203950e-02,4.325664566575786879e-02,4.499805072797516403e-02,4.748552285427640185e-02,5.073024157725550959e-02,5.467551058157679722e-02,5.920034110269770805e-02,6.412895311689226219e-02,6.924419554579228087e-02,7.430397053946466435e-02,7.906168802251202499e-02,8.329154222782848838e-02,8.681563606793374355e-02,8.952619946059446610e-02,9.139673261270131466e-02,9.248052229346424846e-02,9.289973322880706874e-02,9.282994971891501967e-02,9.248335989563001569e-02,9.209116208820528060e-02,9.188471468839329304e-02,9.207586668438372257e-02,9.283871624019719715e-02,9.429601608790712242e-02,9.651212109674571493e-02,9.949159881527311344e-02,1.031810424930235531e-01,1.074724503310304918e-01,1.122085098898444877e-01,1.171913312921216976e-01,1.221958739952243300e-01,1.269878824958652619e-01,1.313440122161610157e-01,1.350702471994856269e-01,1.380155959741925786e-01,1.400807888931513423e-01,1.412235513125639774e-01,1.414620388568288423e-01,1.408768937189755210e-01,1.396105747631112559e-01,1.378610943377596432e-01,1.358679240341242322e-01,1.338912403869222945e-01,1.321887347246863409e-01,1.309931993065921452e-01,1.304912161447746854e-01,1.308032668367394569e-01,1.319677306327899369e-01,1.339319621282396566e-01,1.365527785973818797e-01,1.396078794818414182e-01,1.428185650070054602e-01,1.458812909790941914e-01,1.485022071556679757e-01,1.504282049849789971e-01,1.514710421864440271e-01,1.515243536486688691e-01,1.505740241789949585e-01,1.487017145402197982e-01,1.460807856266142235e-01,1.429628818836436444e-01,1.396524470649496419e-01,1.364683679872897848e-01,1.336978544178618611e-01,1.315530439859955159e-01,1.301403094227222834e-01,1.294469818110932924e-01,1.293458203139971618e-01,1.296161608461806614e-01,1.299794610175130094e-01,1.301439356864861618e-01,1.298497928996907858e-01,1.289059133617324604e-01,1.272114539325064630e-01,1.247603362115871639e-01,1.216307734778118294e-01,1.179645692485664643e-01,1.139419605980648842e-01,1.097578137688865196e-01,1.056033529507193064e-01,1.016540133473281815e-01,9.806071510133952673e-02,9.494109493148769618e-02,9.236893985115891825e-02,9.036334027218402565e-02,8.888196580233145849e-02,8.782245676909543330e-02,8.703243848434749630e-02,8.632599822804093437e-02,8.550469710307614934e-02,8.438195226047837116e-02,8.280814697489914666e-02,8.069136773471055624e-02,7.800875156006011057e-02,7.480679745745405507e-02,7.119277185551696474e-02,6.732063007757883855e-02,6.337381084319371194e-02,5.954596980158774477e-02,5.602055002548442936e-02,5.295121083898399889e-02,5.044662572299608155e-02,4.856301542761614493e-02,4.730551170277642881e-02,4.663651081506159368e-02,4.648652752748926031e-02,4.676202229712399933e-02,4.734735231890754847e-02,4.810342223531530181e-02,4.886876530706968369e-02,4.946651841367501884e-02,4.971697677801690390e-02,4.945526884759782194e-02,4.855441416037108854e-02,4.695040239664438619e-02,4.466107250223264047e-02,4.179103822057174400e-02,3.852052325521278936e-02,3.508180452841855312e-02,3.172927428236030356e-02,2.870745864701853070e-02,2.621934932936379609e-02,2.439871078840793323e-02,2.329229952703914391e-02,2.285661879080652312e-02,2.296924352726084986e-02,2.345079789704958978e-02,2.409219132722835791e-02,2.468167266432980470e-02,2.502740964423395831e-02,2.497447623294867664e-02,2.441808962463590249e-02,2.331407911298885235e-02,2.168436092005309596e-02,1.961408818533213333e-02,1.723939944284031897e-02,1.472862363740934204e-02,1.226251336077993290e-02,1.001797805724559225e-02,8.155943658560812354e-03,6.811293668379653221e-03,6.083420243170410864e-03,6.028156236134029657e-03,6.653090272114440748e-03,7.917748968214163852e-03,9.738510373144533203e-03,1.199588459947326970e-02,1.454048359419456843e-02,1.719604244911434460e-02,1.976269795422998937e-02,2.202649220119177326e-02,2.377827133445338179e-02,2.483925487780789740e-02,2.508643453270561346e-02,2.447114301438745379e-02,2.302756458976276330e-02,2.087139393306929741e-02,1.819039481675691419e-02,1.522876592163141182e-02,1.226626645040627267e-02,9.591393026889522000e-03,7.468323139603104920e-03,6.101539279615666132e-03,5.606096598868931524e-03,5.990736969035927867e-03,7.156912720316396456e-03,8.913131858042981637e-03,1.100145029737386454e-02,1.313107950612238221e-02,1.501389046444081936e-02,1.639779722698611955e-02,1.709473248221480765e-02,1.699905173878897904e-02,1.609165819302576031e-02,1.442898572598620872e-02,1.212326412978719480e-02,9.323660832739263937e-03,6.203430945377794506e-03,2.951418275052990724e-03,-2.369670065904584677e-04,-3.172729211098990285e-03,-5.689416263004501081e-03,-7.657704063386307040e-03,-8.993520096513997822e-03,-9.658523539198856159e-03,-9.655790326583544095e-03,-9.024821596693375844e-03,-7.838958595581226735e-03,-6.205837678004609559e-03,-4.268054885574450869e-03,-2.199123589284569368e-03,-1.918405325269140378e-04,1.559007675083545763e-03,2.875101192744970724e-03,3.611618485173191586e-03,3.672799858428357073e-03,3.025611571107597077e-03,1.709230021001530760e-03,-1.630351931422688479e-04,-2.413027525990239525e-03,-4.820283113030473729e-03,-7.154884155020411682e-03,-9.212150495474226430e-03,-1.084007606440880005e-02,-1.195503981199163603e-02,-1.254603181174125670e-02,-1.266952395013066016e-02,-1.243766730074747848e-02,-1.200287291014138884e-02,-1.154106952394354409e-02,-1.123374406164158804e-02,-1.124738709786510769e-02,-1.171042121114834397e-02,-1.269127807890299726e-02,-1.418398201735593042e-02,-1.610707804082036135e-02,-1.831698273495626500e-02,-2.062959163365434348e-02,-2.284085718712943955e-02,-2.474244623770188028e-02,-2.613644106076363702e-02,-2.685423103995777244e-02,-2.677898892444760884e-02,-2.586563912870911905e-02,-2.415205665764892304e-02,-2.175890308586550873e-02,-1.887901281501610379e-02,-1.575902817823067459e-02,-1.267651520408933849e-02,-9.914999448928688355e-03,-7.737481417971832538e-03,-6.358638632050692824e-03,-5.919085178328397333e-03,-6.468293303788778814e-03,-7.960936697047808416e-03,-1.026585587101035493e-02,-1.318331809277302827e-02,-1.646643880400915430e-02,-1.984423694509004563e-02,-2.304544230459415477e-02,-2.582318216001646891e-02,-2.797937073572356881e-02,-2.938426868194278507e-02,-2.998538157724981237e-02,-2.980347568873263978e-02,-2.891928823017868300e-02,-2.745777767870272168e-02,-2.557567814194787112e-02,-2.345417723128877252e-02,-2.129412766238885854e-02,-1.930834808437343827e-02,-1.770655198399466099e-02,-1.667369904332209260e-02,-1.634777583167535547e-02,-1.680328181089645739e-02,-1.804282090031188168e-02,-1.999587424324878598e-02,-2.252324066535812269e-02,-2.542641854168148016e-02,-2.846223469065673958e-02,-3.136374472025962173e-02,-3.386716713010928109e-02,-3.574118375934898922e-02,-3.681244653300056596e-02,-3.698234825372963275e-02,-3.623404006301665647e-02,-3.463168386214678790e-02,-3.231406422214651991e-02,-2.948338117604493158e-02,-2.638898692629244522e-02,-2.330549048035352594e-02,-2.050593956623230837e-02,-1.823359867861042843e-02,-1.667743322126538641e-02,-1.595512266172838603e-02,-1.610491993693958027e-02,-1.708595978104640589e-02,-1.878614095328349012e-02,-2.103653111883435275e-02,-2.363050514776580957e-02,-2.634538211919798881e-02,-2.896447415254432486e-02,-3.129690434469305227e-02,-3.319208902466852518e-02,-3.454739281333604056e-02,-3.530998465717418572e-02,-3.547497753205910292e-02,-3.508154444590000365e-02,-3.420783626128622718e-02,-3.296446944317210637e-02,-3.148571548266479447e-02,-2.991794209272416113e-02,-2.840565086922264282e-02,-2.707587825931308603e-02,-2.602265976915307116e-02,-2.529492319590831775e-02,-2.489103238767690490e-02,-2.476039643794785208e-02,-2.481057983867640537e-02,-2.491905096128905345e-02,-2.494962980041252540e-02,-2.477287654011737714e-02,-2.428768837184882429e-02,-2.343963258753812770e-02,-2.223149684609563789e-02,-2.072383119526483714e-02,-1.902618679105971822e-02,-1.728139380566321576e-02,-1.564639159573099833e-02,-1.427392955734832318e-02,-1.329753128294891562e-02,-1.281890821327416607e-02,-1.289706737995472731e-02,-1.354066936283462343e-02,-1.470543122454455454e-02,-1.629666598919905091e-02,-1.817593198654789133e-02,-2.017116436831576168e-02,-2.209115136316344014e-02,-2.374595501221970356e-02,-2.497265925636847628e-02,-2.566099762114962268e-02,-2.577036651443818938e-02,-2.533283225287771140e-02,-2.444330669955425625e-02,-2.324134563481642171e-02,-2.188818820781893160e-02,-2.054212156195932629e-02,-1.933617777124459550e-02,-1.836181039487817107e-02,-1.765982119566659667e-02,-1.721805814085256361e-02,-1.697601885433933783e-02,-1.683726933362870645e-02,-1.668846189354045509e-02,-1.641992798594342495e-02,-1.594131733813825696e-02,-1.518803326786914362e-02,-1.411888107134218195e-02,-1.270982570684148216e-02,-1.095006945469494467e-02,-8.843841781274208377e-03,-6.416885791450523818e-03,-3.724315640957928403e-03,-8.570210300430048875e-04,2.055196769802957076e-03,4.845150520315279902e-03,7.315491734304197663e-03,9.252202868767132188e-03,1.044406155295941538e-02,1.070655561020790458e-02,9.907283737430277668e-03,7.988169450705318378e-03,4.979418338449675616e-03,1.002327899476871797e-03,-3.739129500367048033e-03,-8.976412580543583278e-03,-1.440108374518604684e-02,-1.969103761929360749e-02,-2.453402077023318639e-02,-2.864837083020194825e-02,-3.180341126398360946e-02,-3.383890101588402782e-02,-3.467890893605922453e-02,-3.433650115860306662e-02,-3.290986695726688671e-02,-3.057267642854966799e-02,-2.756069969962176777e-02,-2.415505599674645440e-02,-2.066124263664882721e-02,-1.738334763731884738e-02,-1.459505929777661984e-02,-1.251194474746136938e-02,-1.127066300435608688e-02,-1.091880908748569384e-02,-1.141477638830807814e-02,-1.263383628545263447e-02,-1.437760347221611959e-02,-1.638758956854927118e-02,-1.836515427799920858e-02,-1.999861547951341245e-02,-2.099581266381759029e-02,-2.111816386580764662e-02,-2.021074627200500004e-02,-1.822358902345913925e-02,-1.522135427188084714e-02,-1.137974881514075901e-02,-6.968292256291622536e-03,-2.321696687253704296e-03,2.195843707008703159e-03,6.228934236566818425e-03,9.467308695593401255e-03,1.167530966076746161e-02,1.271069747011071421e-02,1.253180589740106841e-02,1.119434914087149083e-02,8.839655826636934333e-03,5.676131238201383156e-03,1.956617997255109126e-03,-2.045137679468544620e-03,-6.056840160703578883e-03,-9.827926179715429020e-03,-1.314653883507289379e-02,-1.585170511171234836e-02,-1.784015295907888377e-02,-1.906780552108054694e-02,-1.954623537861429478e-02,-1.933559209040083479e-02,-1.853604774283829082e-02,-1.727786613386383952e-02,-1.570854284556794447e-02,-1.397672341651808037e-02,-1.221520080132935428e-02,-1.052659977333159774e-02,-8.974358121663174315e-03,-7.579336926972287010e-03,-6.320716180777017149e-03,-5.139209068891467669e-03,-3.941507061992362108e-03,-2.607836498223545414e-03,-1.006528315792810328e-03,9.833114368547450374e-04,3.445917878155877172e-03,6.408182560546565008e-03,9.830859434052818813e-03,1.361362320147071342e-02,1.761120495660681642e-02,2.165433756258188305e-02,2.556873196327779513e-02,2.918888241636521247e-02,3.236800056604918069e-02,3.498601959750349127e-02,3.695468931899105469e-02,3.821765718061459483e-02,3.874636343214905160e-02,3.853572759660936486e-02,3.760368856186224740e-02,3.599639063837992842e-02,3.379768354905141742e-02,3.113869391150322213e-02,2.820205336559878512e-02,2.521691216721626272e-02,2.244414199712256933e-02,2.015393430023955726e-02,1.859941639276788475e-02,1.799092601758403576e-02,1.847605769314105903e-02,2.012862435170289718e-02,2.294607907396525870e-02,2.685340843172717706e-02,3.171249797010462779e-02,3.733604490373225449e-02,4.350337849045678856e-02,4.997520504225358429e-02,5.650658532046726190e-02,6.285972563216157827e-02,6.881844314130117213e-02,7.420478511987797787e-02,7.889589549913944566e-02,8.283732108040259279e-02,8.604980138022140512e-02,8.862920333406860973e-02,9.073928789576471421e-02,9.259451131205771734e-02,9.443109682985012521e-02,9.647060265313887883e-02,9.888486894870425481e-02,1.017705079107369959e-01,1.051377072432605059e-01,1.089149975294254474e-01,1.129679945886025161e-01,1.171260527991165173e-01,1.212095361467737525e-01,1.250529409838671835e-01,1.285219245003993704e-01,1.315232769893646680e-01,1.340077054064050810e-01,1.359670890987403347e-01,1.374288158925802417e-01,1.384487154284826382e-01,1.391028167070239296e-01,1.394784753706855562e-01,1.396661352979657877e-01,1.397519777093733651e-01,1.398097954486698657e-01,1.398907876295370778e-01,1.400129352647002667e-01,1.401535608395325927e-01,1.402478980940989051e-01,1.401951603139711955e-01,1.398725084076953007e-01,1.391551340496171296e-01,1.379382778498033091e-01,1.361565554134750444e-01,1.337969105476845555e-01,1.309028939254552604e-01,1.275706188364781057e-01,1.239394246346396944e-01,1.201800386246560798e-01,1.164802798262698225e-01,1.130263779453735268e-01,1.099795297819129020e-01,1.074519568401047925e-01,1.054896271083255593e-01,1.040660075302610177e-01,1.030859252937297021e-01,1.023966017184848448e-01,1.018038573724789064e-01,1.010913188278597108e-01,1.000394701018927079e-01,9.844230062429527861e-02,9.612088482429892444e-02,9.293386132216845119e-02,8.878618418539842294e-02,8.363890842940208126e-02,7.752047625157634791e-02,7.053520554008528565e-02,6.286278605816332521e-02,5.474528253669542349e-02,4.646275336973527958e-02,3.830278668757143568e-02,3.053155969769249037e-02,2.337273850820571763e-02,1.699618211034086696e-02,1.151404250507265595e-02,6.979941879781311961e-03,3.387956893646922214e-03,6.709994397524857591e-04,-1.298548469202436516e-03,-2.700652277691000403e-03,-3.747526218574867129e-03,-4.652836401487531193e-03,-5.597813604287254011e-03,-6.703948003074449054e-03,-8.019040373837056646e-03,-9.518158061432288597e-03,-1.111644161394933356e-02,-1.268890877364633497e-02,-1.409322986933130711e-02,-1.519268536522017966e-02,-1.587697589458855058e-02,-1.607881243521513265e-02,-1.578446473077785295e-02,-1.503656186048655391e-02,-1.392836912953867787e-02,-1.259104027116607002e-02,-1.117749070041946721e-02,-9.846849832702632074e-03,-8.751960112964835004e-03,-8.030225843709845254e-03,-7.796261823491220169e-03,-8.134155597973360616e-03,-9.088359083888643275e-03,-1.065453129702878532e-02,-1.277338732440218109e-02,-1.533074183864855354e-02,-1.816538620215600933e-02,-2.108403622909667957e-02,-2.388113387464579906e-02,-2.636152125654630390e-02,-2.836429747163765266e-02,-2.978479880510146588e-02,-3.058911233704616345e-02,-3.081519115735360456e-02,-3.055962494972995838e-02,-2.995626933540925310e-02,-2.915520783338745175e-02,-2.830631523069291819e-02,-2.754582927084577720e-02,-2.698226860646904535e-02,-2.668122788784165270e-02,-2.665289093397162079e-02,-2.684645952482974524e-02,-2.715233219013742788e-02,-2.741000256439318078e-02,-2.741973148358254481e-02,-2.695785566654545010e-02,-2.579670412061927515e-02,-2.372932432106163864e-02,-2.059729363759955217e-02,-1.631822866338075370e-02,-1.090841568541804293e-02,-4.495114445008981628e-03,2.685810245169869930e-03,1.030707159689162218e-02,1.797744418599818428e-02,2.527284036360629912e-02,3.176455887617816998e-02,3.704139855987422653e-02,4.072800459560946967e-02,4.250516842213521856e-02,4.213522157468544554e-02,3.949085137076620289e-02,3.458313191594242220e-02,2.758392677067035906e-02,1.883782923971671908e-02,8.859738613175105124e-03,-1.684324086531709813e-03,-1.201380152569277507e-02,-2.128527925831240689e-02,-2.865334244956871390e-02,-3.333331635866466913e-02,-3.466008088296670259e-02,-3.213859803800663689e-02,-2.548233777694159513e-02,-1.463796430632533473e-02,2.014445198975564882e-04,1.859074179999342311e-02,3.983360529459093607e-02,6.299332739688155713e-02,8.691845253567889729e-02,1.102861202931185725e-01,1.316619218302557126e-01,1.495716176234446471e-01,1.625793735349646552e-01,1.693687478407181479e-01,1.688235291562235896e-01,1.601043664833271540e-01,1.427156937329276676e-01,1.165583033702281140e-01,8.196608851251618866e-02,3.972584363100351013e-02,-8.927284631747953170e-03,-6.235312839116247119e-02,-1.186011686207037313e-01,-1.755558479380110171e-01,-2.311124547276694474e-01,-2.833483985652877624e-01,-3.306548679996358930e-01,-3.718104248776968324e-01,-4.059993865810783142e-01,-4.327913108171624890e-01,-4.520993836302967805e-01,-4.641284285221361494e-01,0.000000000000000000e+00,0.000000000000000000e+00,0.000000000000000000e+00,0.000000000000000000e+00,0.000000000000000000e+00,0.000000000000000000e+00,0.000000000000000000e+00,0.000000000000000000e+00,0.000000000000000000e+00,0.000000000000000000e+00,0.000000000000000000e+00,0.000000000000000000e+00,0.000000000000000000e+00,0.000000000000000000e+00,0.000000000000000000e+00,0.000000000000000000e+00,0.000000000000000000e+00,0.000000000000000000e+00,0.000000000000000000e+00,0.000000000000000000e+00,0.000000000000000000e+00,0.000000000000000000e+00,0.000000000000000000e+00,0.000000000000000000e+00,0.000000000000000000e+00,0.000000000000000000e+00,0.000000000000000000e+00,0.000000000000000000e+00,0.000000000000000000e+00,0.000000000000000000e+00,0.000000000000000000e+00,0.000000000000000000e+00,0.000000000000000000e+00,0.000000000000000000e+00,0.000000000000000000e+00,0.000000000000000000e+00,0.000000000000000000e+00,0.000000000000000000e+00,0.000000000000000000e+00,0.000000000000000000e+00,0.000000000000000000e+00,0.000000000000000000e+00,0.000000000000000000e+00,0.000000000000000000e+00,0.000000000000000000e+00,0.000000000000000000e+00,0.000000000000000000e+00,0.000000000000000000e+00,0.000000000000000000e+00,0.000000000000000000e+00,0.000000000000000000e+00,0.000000000000000000e+00,0.000000000000000000e+00,0.000000000000000000e+00,0.000000000000000000e+00,0.000000000000000000e+00,0.000000000000000000e+00,0.000000000000000000e+00,0.000000000000000000e+00,0.000000000000000000e+00,0.000000000000000000e+00,0.000000000000000000e+00,0.000000000000000000e+00,0.000000000000000000e+00,0.000000000000000000e+00,0.000000000000000000e+00,0.000000000000000000e+00,0.000000000000000000e+00,0.000000000000000000e+00,0.000000000000000000e+00,0.000000000000000000e+00,0.000000000000000000e+00,0.000000000000000000e+00,0.000000000000000000e+00,0.000000000000000000e+00,0.000000000000000000e+00,0.000000000000000000e+00,0.000000000000000000e+00,0.000000000000000000e+00,0.000000000000000000e+00,0.000000000000000000e+00,0.000000000000000000e+00,0.000000000000000000e+00,0.000000000000000000e+00,0.000000000000000000e+00,0.000000000000000000e+00,0.000000000000000000e+00,0.000000000000000000e+00,0.000000000000000000e+00,0.000000000000000000e+00,0.000000000000000000e+00,0.000000000000000000e+00,0.000000000000000000e+00,0.000000000000000000e+00,0.000000000000000000e+00
-4.693154415205998409e-01,-4.682637256707546380e-01,-4.616752849306959838e-01,-4.502894352333834393e-01,-4.348354336099583550e-01,-4.160046832823881546e-01,-3.944449153340404690e-01,-3.707736441520096959e-01,-3.456015021493952233e-01,-3.195516652932417490e-01,-2.932634823637208510e-01,-2.673761073966272606e-01,-2.424966708987032482e-01,-2.191625552488273287e-01,-1.978070343918154894e-01,-1.787339062880006213e-01,-1.621035541571783367e-01,-1.479321906893806271e-01,-1.361057376817037534e-01,-1.264063910723907114e-01,-1.185451743980648065e-01,-1.121931207813421788e-01,-1.070075663661209375e-01,-1.026537523952944092e-01,-9.882302833698905498e-02,-9.524866403928654301e-02,-9.171969808024438287e-02,-8.809191623146711558e-02,-8.429371972394229806e-02,-8.032536353757552261e-02,-7.625199247507108424e-02,-7.219124253108770428e-02,-6.829589699705652939e-02,-6.473384126555709051e-02,-6.166917136457827908e-02,-5.924692800028506789e-02,-5.758198624673016575e-02,-5.675227182166460438e-02,-5.679556919481570237e-02,-5.770738753769805857e-02,-5.943766450370795845e-02,-6.188682472266451851e-02,-6.490380619816579766e-02,-6.828853087007617784e-02,-7.179996445266373373e-02,-7.517005466119745793e-02,-7.812382669087437892e-02,-8.040486700752245974e-02,-8.180260572418186771e-02,-8.217630850260626563e-02,-8.147218671266881485e-02,-7.973171132513701131e-02,-7.708949772055523342e-02,-7.376011683917046979e-02,-7.001539097746051210e-02,-6.615479789289228918e-02,-6.247185028885259006e-02,-5.922106653270561155e-02,-5.659134469023409386e-02,-5.468909511920155148e-02,-5.353100150005934282e-02,-5.304545772394973074e-02,-5.308259589239736759e-02,-5.343325300749293683e-02,-5.385684338571335161e-02,-5.411629511960946298e-02,-5.401470224425607147e-02,-5.342531021730759222e-02,-5.230673407705474509e-02,-5.069971759320816840e-02,-4.870835620946885325e-02,-4.647375549838943243e-02,-4.414907177432177837e-02,-4.188257410215256299e-02,-3.981092542925843830e-02,-3.805877088845407291e-02,-3.673707932667553966e-02,-3.593624586440314489e-02,-3.571674635961590710e-02,-3.610193167525788116e-02,-3.707455910565667090e-02,-3.857689878287905161e-02,-4.051450365887025035e-02,-4.276308216834865533e-02,-4.517726617610005879e-02,-4.760119832415144608e-02,-4.988129637094831231e-02,-5.187934350106113840e-02,-5.348247373291267065e-02,-5.460895593626251959e-02,-5.521213612425032030e-02,-5.528442108167386931e-02,-5.485977319753865961e-02,-5.401248732355116294e-02,-5.285264734690253707e-02,-5.151940820946776523e-02,-5.017099187636123170e-02,-4.896987207209124032e-02,-4.806445360836011926e-02,-4.757087712660097029e-02,-4.755898408511745334e-02,-4.804548615783781063e-02,-4.899419635304227277e-02,-5.032000276049115178e-02,-5.189420783659184216e-02,-5.355257909725232718e-02,-5.510912034957939770e-02,-5.637619678901459319e-02,-5.718764401325494851e-02,-5.742004684413412607e-02,-5.700892827787708284e-02,-5.595812307972256039e-02,-5.434154392703476055e-02,-5.229758715518093709e-02,-5.001645068410343759e-02,-4.771987323261141223e-02,-4.563359134518710225e-02,-4.395578977214405908e-02,-4.282785349196726460e-02,-4.231417152794537950e-02,-4.239517309023764502e-02,-4.297423395867670110e-02,-4.389614298050181079e-02,-4.497239721381093153e-02,-4.600721268818741549e-02,-4.681926754644066130e-02,-4.725752311311703924e-02,-4.721237609499564364e-02,-4.662396648780724184e-02,-4.548811651693042413e-02,-4.385845788439870357e-02,-4.184224044824282757e-02,-3.958846824123837815e-02,-3.726974671805878547e-02,-3.506106134418963960e-02,-3.311887982833022770e-02,-3.156384146409832447e-02,-3.047049402667370219e-02,-2.986633773793040403e-02,-2.973832259614323653e-02,-3.004123228274604290e-02,-3.070358547827432144e-02,-3.163100497758874335e-02,-3.270943744431058231e-02,-3.380999759083189171e-02,-3.479610292052143922e-02,-3.553349194257971605e-02,-3.590278965285360196e-02,-3.581154888729073255e-02,-3.520176045925372393e-02,-3.405193515240182572e-02,-3.237643533387795508e-02,-3.022492841501836502e-02,-2.768227418674036946e-02,-2.486663901172605703e-02,-2.192279654077399290e-02,-1.900884268423607554e-02,-1.627788356646220000e-02,-1.385956440595213952e-02,-1.184618454287943677e-02,-1.028484487305631953e-02,-9.174488872163592823e-03,-8.466867316039676516e-03,-8.072084572646010675e-03,-7.870102256593694556e-03,-7.727786700827728693e-03,-7.517811826234873165e-03,-7.134325791014894599e-03,-6.502351390778404391e-03,-5.581158440740006249e-03,-4.363512179082616738e-03,-2.872320288921021043e-03,-1.154888206665555944e-03,7.260191704015386393e-04,2.704682454077656038e-03,4.726465169920934101e-03,6.758398075808177106e-03,8.790866512550109604e-03,1.082892502361507657e-02,1.287800397601308530e-02,1.493186000910007305e-02,1.696855095424654875e-02,1.895628910554891106e-02,2.086731062105957532e-02,2.269449597934723728e-02,2.446410282317403734e-02,2.623948821216613020e-02,2.811388546444974421e-02,3.019429233914136881e-02,3.258184201840553379e-02,3.535445686133142223e-02,3.855519475655994760e-02,4.218643659324428780e-02,4.620771343747592796e-02,5.053501762478912473e-02,5.504177254280855774e-02,5.956371120047677936e-02,6.390969192645475083e-02,6.787888195191139895e-02,7.128342159090680918e-02,7.397408783098996521e-02,7.586408313821746408e-02,7.694524254429678523e-02,7.729318977685471770e-02,7.706107294825655096e-02,7.646360582722215582e-02,7.575443997201711244e-02,7.520029205565854913e-02,7.505479367541306734e-02,7.553457182102865652e-02,7.679974064104758136e-02,7.894059461663961719e-02,8.197209943616648453e-02,8.583696685030751949e-02,9.041581558472701341e-02,9.554101014852922624e-02,1.010111552053240686e-01,1.066048664456096806e-01,1.120938667397744504e-01,1.172562938314944125e-01,1.218907569971123817e-01,1.258303113151488239e-01,1.289550296739676027e-01,1.312028382585528619e-01,1.325781909559225202e-01,1.331555511149266346e-01,1.330728084972405689e-01,1.325126157361820600e-01,1.316758442947148222e-01,1.307554792220167739e-01,1.299179302605734665e-01,1.292935407296852690e-01,1.289732176809773867e-01,1.290069445595700970e-01,1.294023586554951255e-01,1.301242039113471860e-01,1.310961872603309819e-01,1.322067250654736237e-01,1.333199095727030659e-01,1.342916120457353646e-01,1.349885861664559261e-01,1.353079247682628383e-01,1.351946509253152129e-01,1.346543049759649502e-01,1.337561053236188957e-01,1.326234833973046201e-01,1.314128330747486306e-01,1.302862925357542168e-01,1.293873813751260093e-01,1.288261356511376243e-01,1.286741297659400873e-01,1.289652179103332741e-01,1.296974577275130935e-01,1.308330145632298214e-01,1.322947892276135629e-01,1.339616796364431761e-01,1.356672078174872009e-01,1.372064070971483474e-01,1.383532551745159656e-01,1.388869381153664817e-01,1.386215766263331206e-01,1.374326322810888734e-01,1.352746322816119062e-01,1.321876521453781983e-01,1.282922228216907823e-01,1.237732347654572351e-01,1.188544972107562214e-01,1.137684012806560174e-01,1.087274271057012826e-01,1.039030414215275644e-01,9.941402023341934513e-02,9.532328811604365293e-02,9.164095616197504013e-02,8.833146217077265938e-02,8.532423724391480224e-02,8.252820072387351269e-02,7.984910443542750369e-02,7.720677648064308563e-02,7.454903138370883031e-02,7.186011878414973186e-02,6.916199567247426072e-02,6.650685605661250943e-02,6.396148543421403820e-02,6.158725945667409968e-02,5.942136026750491351e-02,5.746479585916826338e-02,5.568150364454831774e-02,5.400960210555333374e-02,5.238120583222567739e-02,5.074351531795008585e-02,4.907341555573238590e-02,4.738035686706686817e-02,4.569612024579493975e-02,4.405554201690299598e-02,4.247884437336317542e-02,4.096694715178507418e-02,3.951144872912458472e-02,3.810972359682739119e-02,3.677420653346347851e-02,3.553175066920872399e-02,3.441531678114358866e-02,3.345312284815176590e-02,3.266075017102659100e-02,3.203958940321581517e-02,3.158107973584876188e-02,3.127284548192854619e-02,3.110260790760747962e-02,3.105898104104767854e-02,3.113131645394405511e-02,3.131038706059005583e-02,3.158955169716253647e-02,3.196459908778374187e-02,3.242968985068113430e-02,3.296742461703718735e-02,3.353521411051611084e-02,3.405582359349350330e-02,3.442013245010740879e-02,3.450257780157019172e-02,3.418229059016483079e-02,3.336296977882833442e-02,3.198927194489954023e-02,3.005975399790467364e-02,2.763510510961824859e-02,2.483928878167844176e-02,2.185153692650970009e-02,1.888816762721588077e-02,1.617571219017291395e-02,1.392065819884900392e-02,1.228333297811405600e-02,1.136171473685287057e-02,1.118589903079937956e-02,1.171906251845260781e-02,1.286006934887853372e-02,1.444662863605115921e-02,1.626256830128761099e-02,1.805451919143416517e-02,1.955992274781271842e-02,2.054158683106206001e-02,2.082001996875527949e-02,2.029679688563607726e-02,1.896664310811754448e-02,1.691852043305817552e-02,1.432667604668700669e-02,1.143219793343948701e-02,8.514947562948516069e-03,5.857071191224107881e-03,3.703103139476321241e-03,2.225185630165742688e-03,1.501919927762771336e-03,1.514865128924893119e-03,2.160427586071161574e-03,3.271123515923468790e-03,4.640486281284529613e-03,6.048221882050230057e-03,7.283906469069917171e-03,8.167935056136622560e-03,8.568378540228143228e-03,8.411708813255817235e-03,7.684529604871250148e-03,6.425474532148057853e-03,4.711170396222494686e-03,2.642379793327989494e-03,3.340418320038882928e-04,-2.090455841478194160e-03,-4.502291570973076390e-03,-6.769874817840448519e-03,-8.763352417723363139e-03,-1.036133269408287885e-02,-1.145825885032078495e-02,-1.197087198270295472e-02,-1.184322538701353296e-02,-1.105006142355481960e-02,-9.598652121366695392e-03,-7.529673367465448443e-03,-4.917315972052513362e-03,-1.868202005206326486e-03,1.480775587194847363e-03,4.964597062199318893e-03,8.392220208965560715e-03,1.155164130507184417e-02,1.422197447175800947e-02,1.619357752737513728e-02,1.729307695333341666e-02,1.740822651451767386e-02,1.650772045453066661e-02,1.465153546429718776e-02,1.198806607719878937e-02,8.736811704590456001e-03,5.159035429696815639e-03,1.521440791856590920e-03,-1.940311865426324906e-03,-5.050389722151242197e-03,-7.707954660592375440e-03,-9.887396333386463954e-03,-1.162607572922830061e-02,-1.300355236815673235e-02,-1.411679804987962111e-02,-1.505678856820727267e-02,-1.589239433222652820e-02,-1.666426827731096877e-02,-1.738502965685038634e-02,-1.803988992809025041e-02,-1.858654296447296086e-02,-1.895757725913518529e-02,-1.906828923843807005e-02,-1.883027180306450291e-02,-1.816898733190416837e-02,-1.704198444076704400e-02,-1.545418144296778831e-02,-1.346764262268654137e-02,-1.120402426481455042e-02,-8.838335892713662656e-03,-6.584461261521595832e-03,-4.675266554054762977e-03,-3.340314847574928254e-03,-2.782809954648069167e-03,-3.157655608577078585e-03,-4.553912792517329777e-03,-6.984229323739072660e-03,-1.038141573457894429e-02,-1.460096050020932672e-02,-1.942823474282042578e-02,-2.458984054902043845e-02,-2.977001535596076123e-02,-3.463377189068564399e-02,-3.885658646102506386e-02,-4.215685123535090756e-02,-4.432499232084931989e-02,-4.524359046154881325e-02,-4.489531114988221105e-02,-4.335890500992882479e-02,-4.079662598616951019e-02,-3.743733224235627766e-02,-3.355796927682636044e-02,-2.946382752094997906e-02,-2.546682682929234803e-02,-2.186201298095665282e-02,-1.890485314083379526e-02,-1.679327746933977766e-02,-1.565636341712730445e-02,-1.554741157582753379e-02,-1.643773163336427479e-02,-1.821136994742171208e-02,-2.066628221487690903e-02,-2.352823180477206164e-02,-2.647954469137407674e-02,-2.919901545968753287e-02,-3.140421297704449471e-02,-3.288571372867010734e-02,-3.352605931260713851e-02,-3.330235153549545440e-02,-3.227649711790570031e-02,-3.057914711284755171e-02,-2.839236125809762104e-02,-2.593307860461039824e-02,-2.343658976389207879e-02,-2.113858720313265688e-02,-1.925605491725396884e-02,-1.796858161094970138e-02,-1.740104543067745244e-02,-1.760793970872757963e-02,-1.856109206129487321e-02,-2.014493369120818472e-02,-2.216388009549746102e-02,-2.436402994580232420e-02,-2.646725407975056288e-02,-2.821076917115311264e-02,-2.938180616550024882e-02,-2.983849703431437281e-02,-2.951482508025685472e-02,-2.841456509694981550e-02,-2.660163623971886770e-02,-2.419211880086682975e-02,-2.134869430691227823e-02,-1.827341161100732789e-02,-1.519344428950261325e-02,-1.233948334043578551e-02,-9.922485125939243394e-03,-8.115207313881028089e-03,-7.040877538243610345e-03,-6.766779578650778879e-03,-7.299016643184357521e-03,-8.577522324171955523e-03,-1.047499621183161853e-02,-1.280532629467785906e-02,-1.534379972083141710e-02,-1.785513405463209913e-02,-2.012172848969716321e-02,-2.196617871589715693e-02,-2.326606101217280204e-02,-2.396205338477818206e-02,-2.406131038246454856e-02,-2.363658234103592146e-02,-2.281983466174656097e-02,-2.178888574825177393e-02,-2.074679934677885890e-02,-1.989614110277873951e-02,-1.941265877131169437e-02,-1.942310869649633079e-02,-1.998955140317856816e-02,-2.110051894686956753e-02,-2.267003412009591448e-02,-2.454686570605853907e-02,-2.653585246365051942e-02,-2.842889058269129979e-02,-3.003692599349238462e-02,-3.121260292897282823e-02,-3.185952896987245819e-02,-3.193205949976524877e-02,-3.143155236818629544e-02,-3.040180562167530201e-02,-2.892343302496427210e-02,-2.710704697316868028e-02,-2.508622940483633268e-02,-2.301063707267343023e-02,-2.103770032574462517e-02,-1.932114029770442068e-02,-1.799678035771423712e-02,-1.716812400432774291e-02,-1.689457464173816856e-02,-1.718477257041762032e-02,-1.799515864498867079e-02,-1.923075755731181932e-02,-2.074679599889256779e-02,-2.235526539193205889e-02,-2.384177044078092042e-02,-2.499248740868133603e-02,-2.562487540238411743e-02,-2.561426590387411162e-02,-2.491085504135256978e-02,-2.354498304112911250e-02,-2.162200679874620377e-02,-1.931059547713375596e-02,-1.682743563684780536e-02,-1.441787620445773681e-02,-1.233113762425864200e-02,-1.079240630632465059e-02,-9.977448162259868608e-03,-9.993675695800596434e-03,-1.086793919111140108e-02,-1.254097828126346341e-02,-1.486972946092095238e-02,-1.763756861598205286e-02,-2.057158901388137298e-02,-2.336742225606586176e-02,-2.572177585771905778e-02,-2.736924047944011562e-02,-2.811718849668538162e-02,-2.787232981550938349e-02,-2.665336593202513593e-02,-2.458685621672028823e-02,-2.188798019158627248e-02,-1.883178634020729256e-02,-1.572174496124330995e-02,-1.286026070151399629e-02,-1.052162381876479806e-02,-8.926358146647606073e-03,-8.218760309910281767e-03,-8.451751271858438941e-03,-9.582138917640580303e-03,-1.147752634031829616e-02,-1.393391252105960140e-02,-1.669969983565573746e-02,-1.950068098716300699e-02,-2.206364828976908193e-02,-2.413933843354542155e-02,-2.552492937093662692e-02,-2.608363441186589693e-02,-2.575725536359481024e-02,-2.456880654784842841e-02,-2.261510028610007328e-02,-2.005126448715525631e-02,-1.707092906980558003e-02,-1.388681955043071480e-02,-1.071462688458092206e-02,-7.759369612546704667e-03,-5.202248757485954632e-03,-3.188380060326385587e-03,-1.817702385501396463e-03,-1.140352202489388397e-03,-1.156523156881022942e-03,-1.821061019824699728e-03,-3.052935632110352453e-03,-4.747903015692292450e-03,-6.790667376334361474e-03,-9.063215245339839923e-03,-1.144875738992159886e-02,-1.383323597580982979e-02,-1.610681795915485867e-02,-1.816669499799989165e-02,-1.992126480531811877e-02,-2.129548968970033582e-02,-2.223736008687903290e-02,-2.272411860450187712e-02,-2.276494520891501547e-02,-2.239772605874520289e-02,-2.168184452416122357e-02,-2.069208608029705909e-02,-1.951709271713173224e-02,-1.826097904503098945e-02,-1.704239257280480008e-02,-1.598331657009733828e-02,-1.518299477847650375e-02,-1.468342424998052113e-02,-1.444460617282810298e-02,-1.434583759795798538e-02,-1.421366614751729679e-02,-1.386303180392011065e-02,-1.313554889464401028e-02,-1.192572525910724768e-02,-1.019489078339958464e-02,-7.976507492405322114e-03,-5.374449309208726225e-03,-2.553431167119361422e-03,2.788145361972572261e-04,2.896523541426030551e-03,5.085526854935186816e-03,6.673403575335929566e-03,7.554649476423898682e-03,7.705061363406311148e-03,7.181940720598227294e-03,6.111992982964108666e-03,4.673198955387283110e-03,3.076563767874812387e-03,1.549297726040809548e-03,3.171806627021215002e-04,-4.153817469704952636e-04,-4.845761115509989239e-04,2.199223920520433900e-04,1.750766120742160798e-03,4.104190142739892570e-03,7.221141856433641384e-03,1.098584257903943533e-02,1.522549367339082367e-02,1.971888205717774178e-02,2.421909799551752798e-02,2.848712393330886036e-02,3.232547016676765722e-02,3.560169811540958573e-02,3.825928191363988512e-02,4.031887881607341961e-02,4.187254928666418047e-02,4.307108131914431925e-02,4.410497102368713535e-02,4.518202207271465598e-02,4.650508268093818398e-02,4.825137077349780923e-02,5.055331469430054264e-02,5.348171941737071833e-02,5.703425929880896750e-02,6.113331670774527909e-02,6.563448366246293908e-02,7.034262996918776156e-02,7.503197189345005291e-02,7.946958630609045338e-02,8.344216353133646069e-02,8.678215728592689193e-02,8.938710765474111586e-02,9.122869028275458481e-02,9.235273057948549524e-02,9.287249762924484897e-02,9.295582928198102557e-02,9.280651591150324009e-02,9.264259194919174933e-02,9.267567590411923684e-02,9.309404994218660467e-02,9.404996965452297464e-02,9.565178160117598916e-02,9.796162791637495759e-02,1.009975522220132038e-01,1.047373131990206041e-01,1.091212651656151417e-01,1.140522653586058394e-01,1.193933284273742262e-01,1.249681263465129144e-01,1.305700707453108511e-01,1.359801918991110914e-01,1.409872521064979844e-01,1.454023994594329516e-01,1.490659495332489204e-01,1.518492918937559555e-01,1.536557926374259309e-01,1.544228380607610973e-01,1.541257053208503480e-01,1.527827932334176186e-01,1.504607845338318817e-01,1.472782432512307060e-01,1.434069295494230512e-01,1.390703098205132160e-01,1.345371067969248768e-01,1.301053629440487858e-01,1.260724464892044039e-01,1.226916599346902365e-01,1.201258760115994084e-01,1.184153091209382280e-01,1.174718750290387470e-01,1.170995109610171586e-01,1.170300743074355887e-01,1.169639472685503334e-01,1.166088373149118673e-01,1.157131528040146878e-01,1.140906399425029860e-01,1.116337886806207380e-01,1.083160964077538729e-01,1.041852014784618169e-01,9.934905399920054836e-02,9.395739675463206375e-02,8.818146187909579881e-02,8.219483370670317701e-02,7.615764126317499383e-02,7.020531903518985317e-02,6.444223324170449130e-02,5.893924143083282413e-02,5.373369541413761802e-02,4.883174241747998551e-02,4.421452644352213968e-02,3.984917235210878872e-02,3.570245644833506399e-02,3.175277353644714862e-02,2.799596230462692015e-02,2.444260625585483598e-02,2.110858104449630721e-02,1.800490510666780120e-02,1.513300296356762803e-02,1.248654168524918756e-02,1.005602285861267528e-02,7.831746520879995926e-03,5.803917305815782871e-03,3.961534892591463478e-03,2.291557362459389815e-03,7.778201801890689913e-04,-6.018330354045520886e-04,-1.880726130307524852e-03,-3.109240571387118703e-03,-4.358204998953929196e-03,-5.716269627398542358e-03,-7.278999485357113414e-03,-9.130529354826194544e-03,-1.132257596730067845e-02,-1.385743817374398765e-02,-1.667949866199160136e-02,-1.967554868034118720e-02,-2.268201198586493675e-02,-2.549843582748655829e-02,-2.790829204547767839e-02,-2.970642518783223052e-02,-3.072822317403436226e-02,-3.087323785213266433e-02,-3.011820888346732408e-02,-2.851906161726456765e-02,-2.620477287752694118e-02,-2.336663404933796151e-02,-2.024438017208600102e-02,-1.710773452272314893e-02,-1.423201536571319994e-02,-1.186998604681673182e-02,-1.022510382326580376e-02,-9.431420818647839877e-03,-9.543689978134399163e-03,-1.053911547878468025e-02,-1.232960670640147194e-02,-1.478026566598496586e-02,-1.772816030255535552e-02,-2.099690730505313768e-02,-2.440520969167926310e-02,-2.776896522221253272e-02,-3.089834071058389364e-02,-3.359452979729508210e-02,-3.565249317961428910e-02,-3.687253935256441795e-02,-3.707802920552399212e-02,-3.613437237037114835e-02,-3.396566303694006222e-02,-3.056557724668805542e-02,-2.599890808902394559e-02,-2.039266944862908743e-02,-1.392008070742864652e-02,-6.783432972301431038e-03,7.984954275532059245e-04,8.595937024942558111e-03,1.636888694054812118e-02,2.386889781799768351e-02,3.084625092779674782e-02,3.706111898983687619e-02,4.229301419917243926e-02,4.634496307050059438e-02,4.904507331385573460e-02,5.025126419736681421e-02,4.986268868757252892e-02,4.783715544042203144e-02,4.421048057119381092e-02,3.911239154222489328e-02,3.277448509707688029e-02,2.552819899045302016e-02,1.779427628670398123e-02,1.006749730540203690e-02,2.899368927530303688e-03,-3.121307231764923040e-03,-7.392517006220402156e-03,-9.331463781840916571e-03,-8.416582252657288030e-03,-4.235757011100701672e-03,3.463721132290444125e-03,1.472584457484797486e-02,2.934011631756972341e-02,4.680633511168785094e-02,6.632006752325587950e-02,8.678715940072552482e-02,1.068701141841193886e-01,1.250635676417163333e-01,1.397913925606938668e-01,1.495141225502173987e-01,1.528347340136312904e-01,1.485944639375577636e-01,1.359554822430664445e-01,1.144709210335745075e-01,8.414371512402898934e-02,4.547211098860641509e-02,-5.284987574416888725e-04,-5.234423054621216431e-02,-1.080364047401066036e-01,-1.653741273278994672e-01,-2.220139594748175293e-01,-2.756984171314009746e-01,-3.244372209025250253e-01,-3.666427087445471855e-01,-4.012070126656134272e-01,-4.275234057744532468e-01,-4.454635015920814234e-01,-4.553235800509397579e-01,0.000000000000000000e+00,0.000000000000000000e+00,0.000000000000000000e+00,0.000000000000000000e+00,0.000000000000000000e+00,0.000000000000000000e+00,0.000000000000000000e+00,0.000000000000000000e+00,0.000000000000000000e+00,0.000000000000000000e+00,0.000000000000000000e+00,0.000000000000000000e+00,0.000000000000000000e+00,0.000000000000000000e+00,0.000000000000000000e+00,0.000000000000000000e+00,0.000000000000000000e+00,0.000000000000000000e+00,0.000000000000000000e+00,0.000000000000000000e+00,0.000000000000000000e+00,0.000000000000000000e+00,0.000000000000000000e+00,0.000000000000000000e+00,0.000000000000000000e+00,0.000000000000000000e+00,0.000000000000000000e+00,0.000000000000000000e+00,0.000000000000000000e+00,0.000000000000000000e+00,0.000000000000000000e+00,0.000000000000000000e+00,0.000000000000000000e+00,0.000000000000000000e+00,0.000000000000000000e+00,0.000000000000000000e+00,0.000000000000000000e+00,0.000000000000000000e+00,0.000000000000000000e+00,0.000000000000000000e+00,0.000000000000000000e+00,0.000000000000000000e+00,0.000000000000000000e+00,0.000000000000000000e+00,0.000000000000000000e+00,0.000000000000000000e+00,0.000000000000000000e+00,0.000000000000000000e+00,0.000000000000000000e+00,0.000000000000000000e+00,0.000000000000000000e+00,0.000000000000000000e+00,0.000000000000000000e+00,0.000000000000000000e+00,0.000000000000000000e+00,0.000000000000000000e+00,0.000000000000000000e+00,0.000000000000000000e+00,0.000000000000000000e+00,0.000000000000000000e+00,0.000000000000000000e+00,0.000000000000000000e+00,0.000000000000000000e+00,0.000000000000000000e+00,0.000000000000000000e+00,0.000000000000000000e+00,0.000000000000000000e+00,0.000000000000000000e+00,0.000000000000000000e+00,0.000000000000000000e+00,0.000000000000000000e+00,0.000000000000000000e+00,0.000000000000000000e+00,0.000000000000000000e+00,0.000000000000000000e+00,0.000000000000000000e+00,0.000000000000000000e+00,0.000000000000000000e+00,0.000000000000000000e+00,0.000000000000000000e+00,0.000000000000000000e+00,0.000000000000000000e+00,0.000000000000000000e+00,0.000000000000000000e+00,0.000000000000000000e+00,0.000000000000000000e+00,0.000000000000000000e+00
