2.107081959934486992e-01,2.049300260880614066e-01,1.931246886028497589e-01,1.762540203494405988e-01,1.556383214093518819e-01,1.328292102300784039e-01,1.094503032034942341e-01,8.703226492440652162e-02,6.686973609728164014e-02,4.991928135276780393e-02,3.674593141459012863e-02,2.751840350056589460e-02,2.204901085062536265e-02,1.986856591824056814e-02,2.032129047707321653e-02,2.266553261025950478e-02,2.617041804532240640e-02,3.019990810675845724e-02,3.427435537756957223e-02,3.810048732673229632e-02,4.156600045656472925e-02,4.470243740138161309e-02,4.762609940759958416e-02,5.046964569686721719e-02,5.331790069627868195e-02,5.616158335180870820e-02,5.888027687369846302e-02,6.125834001549911728e-02,6.302710673251725459e-02,6.391953140990934423e-02,6.372232857588566723e-02,6.231453964693950409e-02,5.968751328434779985e-02,5.594653252399985760e-02,5.129726860755408346e-02,4.602096523702361996e-02,4.044159367014526357e-02,3.488794526216808245e-02,2.965492511839375525e-02,2.496961187207794725e-02,2.096684977048697204e-02,1.767706231339077200e-02,1.502769167977720949e-02,1.285892525295607124e-02,1.095273315091405304e-02,9.071823405096936591e-03,7.002629342531423162e-03,4.594266008251979456e-03,1.785070407991207805e-03,-1.388500888716552801e-03,-4.800551905948571493e-03,-8.257911815855084603e-03,-1.153018870871407031e-02,-1.438182815160035655e-02,-1.660106960246932745e-02,-1.802346461212929810e-02,-1.855053559054756912e-02,-1.816387392125795586e-02,-1.693197515186881455e-02,-1.500592551106719012e-02,-1.260336433339659737e-02,-9.984673415728026122e-03,-7.426513311348505175e-03,-5.196416676662185194e-03,-3.531020603804379057e-03,-2.619094805317587118e-03,-2.588490880102279831e-03,-3.496039254604708241e-03,-5.321494689458017117e-03,-7.967588660212743257e-03,-1.126677004197856186e-02,-1.499370123268811000e-02,-1.888273227002250365e-02,-2.265015656601757771e-02,-2.602050417376271935e-02,-2.875455384485655491e-02,-3.067526674402034845e-02,-3.168750464294572966e-02,-3.178822868292228987e-02,-3.106540420397197605e-02,-2.968604334893824165e-02,-2.787572025415776047e-02,-2.589183916626417239e-02,-2.399239636974757894e-02,-2.240396891523572728e-02,-2.129545775532170129e-02,-2.076292030261710914e-02,-2.082573262467238978e-02,-2.143083029244978802e-02,-2.246293654633753009e-02,-2.376080755985020276e-02,-2.513843223930745802e-02,-2.640782602306008392e-02,-2.740005396848970917e-02,-2.798224236232341525e-02,-2.806865775309336924e-02,-2.762457471774615661e-02,-2.666348414286690005e-02,-2.523977155642603831e-02,-2.343917437555707167e-02,-2.136887699767167290e-02,-1.914873152140332199e-02,-1.690414823135962669e-02,-1.475974756619544657e-02,-1.283261837320791646e-02,-1.122563895558377316e-02,-1.002270611706464545e-02,-9.286744716212229703e-03,-9.059135779021638274e-03,-9.358678806775407380e-03,-1.017993443430020156e-02,-1.149232603635568818e-02,-1.324093044439786371e-02,-1.534841124550615291e-02,-1.771707060298905248e-02,-2.023096529682519296e-02,-2.275911629623149704e-02,-2.516099599485751778e-02,-2.729450019327830934e-02,-2.902505275537206955e-02,-3.023419240883656184e-02,-3.082734046837305383e-02,-3.074090534157618987e-02,-2.994807800834905359e-02,-2.846325232674956629e-02,-2.634627749306076017e-02,-2.370637344458981915e-02,-2.070221374970496533e-02,-1.753337176679130999e-02,-1.442087554772022127e-02,-1.157968531637031638e-02,-9.190170379012638224e-03,-7.375910387463787896e-03,-6.191742271371374236e-03,-5.622339973656004415e-03,-5.589876523157014804e-03,-5.968857413122391486e-03,-6.605755539863252673e-03,-7.340495124115181506e-03,-8.026947689861176419e-03,-8.550480381087343165e-03,-8.841043265787714572e-03,-8.880024311979487633e-03,-8.699473335706982280e-03,-8.373869793027455266e-03,-8.006549661896483761e-03,-7.714176496198123928e-03,-7.612312588583081130e-03,-7.803216317645095094e-03,-8.365074498570962414e-03,-9.341744976414852533e-03,-1.073370908293998921e-02,-1.249241317715537279e-02,-1.452006242255321489e-02,-1.667588530905100841e-02,-1.878882772206569296e-02,-2.067527204476200114e-02,-2.215882987430721138e-02,-2.308860143994690556e-02,-2.335316991295111749e-02,-2.288934450151116490e-02,-2.168566783025798958e-02,-1.978056550567286118e-02,-1.725557109121867577e-02,-1.422581044451977361e-02,-1.083014764265424583e-02,-7.221257155966229538e-03,-3.555186652266682616e-03,1.777683981645081826e-05,3.358137304068376568e-03,6.337915417865677345e-03,8.840197650344917835e-03,1.076195266473362229e-02,1.202272035447426654e-02,1.257711377190319675e-02,1.242545023225022360e-02,1.161782386112653054e-02,1.025065126811204250e-02,8.457284644789302488e-03,6.394828742377084256e-03,4.229037017419580262e-03,2.119044842791960835e-03,2.037088561590100157e-04,-1.409072644812343856e-03,-2.649344683062085717e-03,-3.488057449878451902e-03,-3.936054914348216527e-03,-4.039824990740293643e-03,-3.875197951244289431e-03,-3.539867468453367604e-03,-3.144462487400920183e-03,-2.800605061415460239e-03,-2.604914226621462756e-03,-2.621060440529003610e-03,-2.864712300837112761e-03,-3.295427385701349410e-03,-3.816867774526985346e-03,-4.285476146912727512e-03,-4.527355495724015057e-03,-4.361185817416444489e-03,-3.622892873023200559e-03,-2.188369908503925640e-03,7.212908027281506751e-06,2.954359050592372023e-03,6.561191281039362860e-03,1.065724310018193594e-02,1.501202558473188273e-02,1.936438407991007346e-02,2.345339247073242525e-02,2.704379735700521148e-02,2.994480744698431104e-02,3.202351720056283851e-02,3.321372333987023667e-02,3.352077259622487926e-02,3.302284240093809192e-02,3.186700567652854532e-02,3.025673735619110669e-02,2.842939200732699442e-02,2.662685098684219875e-02,2.506585866803256318e-02,2.391388346931152403e-02,2.327338849403785478e-02,2.317524910641831012e-02,2.358143201504374342e-02,2.439683901658385931e-02,2.548891789572479624e-02,2.671093427218809019e-02,2.792287547966926242e-02,2.900530080411158756e-02,2.986545962861684653e-02,3.043850818314552953e-02,3.068720320223501316e-02,3.060141939382004031e-02,3.019706324185269380e-02,2.951421929825905413e-02,2.861461189816670234e-02,2.757693619519434661e-02,2.648804120791851263e-02,2.543052435332021979e-02,2.447007274375274238e-02,2.364582898723135290e-02,2.296555273980876999e-02,2.240643014866556051e-02,2.192140401101118352e-02,2.144916217498598829e-02,2.092468475930435445e-02,2.028768666976560331e-02,1.948780589976369798e-02,1.848683802765379788e-02,1.725936292255818641e-02,1.579338848402229989e-02,1.409160029428885123e-02,1.217214166417576737e-02,1.006727859638767951e-02,7.819862666390986136e-03,5.479941280752693988e-03,3.104081228266890053e-03,7.570710842379942953e-04,-1.487227848213718701e-03,-3.549299124919832842e-03,-5.352989095190888863e-03,-6.838338563104408817e-03,-7.973635388770329915e-03,-8.761820930656288170e-03,-9.239473832622937394e-03,-9.470419699394501400e-03,-9.537061356633496495e-03,-9.530836082710649956e-03,-9.541913267268796461e-03,-9.648590445519390768e-03,-9.907371131022347371e-03,-1.034491988849175342e-02,-1.095346659525202326e-02,-1.169115734446789061e-02,-1.248794950687066863e-02,-1.325659687843252187e-02,-1.390711198570035792e-02,-1.436169119359753318e-02,-1.456660400780319074e-02,-1.449908756696929694e-02,-1.416981940143878516e-02,-1.362256897048082400e-02,-1.293122141258521568e-02,-1.219272366041812897e-02,-1.151530561542205185e-02,-1.100409374614291606e-02,-1.074801659201397863e-02,-1.081105169867083680e-02,-1.122830491877433411e-02,-1.200528631855945876e-02,-1.311865509758157293e-02,-1.451798583078293438e-02,-1.612886949620483817e-02,-1.785767360289497105e-02,-1.959817471558257876e-02,-2.123991143784340410e-02,-2.267787250859640627e-02,-2.382323896853608819e-02,-2.461411272286666285e-02,-2.502357839739914602e-02,-2.506223121868957418e-02,-2.477419097522051347e-02,-2.422792189164664489e-02,-2.350416363798353211e-02,-2.268309843124763706e-02,-2.183314414110636495e-02,-2.100441626564758871e-02,-2.022845984391931709e-02,-1.952227912823313247e-02,-1.889285625006672034e-02,-1.834013183505116620e-02,-1.785915385690170845e-02,-1.744288649677458447e-02,-1.708620444167367053e-02,-1.679062593424942781e-02,-1.656849808366473928e-02,-1.644404632295750832e-02,-1.644864999137532827e-02,-1.661063113888798168e-02,-1.694378905378250352e-02,-1.744040671546339544e-02,-1.807223030550427975e-02,-1.879871104297923395e-02,-1.957854931497398157e-02,-2.037974637880882178e-02,-2.118470670992862390e-02,-2.198965534792282281e-02,-2.280001405919777208e-02,-2.362377304840671335e-02,-2.446391810770352435e-02,-2.531036925626294759e-02,-2.613232952057966546e-02,-2.687312692383117887e-02,-2.745044868999666973e-02,-2.776394773046285749e-02,-2.770971033823816168e-02,-2.719844610858981535e-02,-2.617254607326838928e-02,-2.461704501683937077e-02,-2.256147811414114038e-02,-2.007300161915573714e-02,-1.724459352350229263e-02,-1.418444675364494145e-02,-1.101190339409996964e-02,-7.860117408471431824e-03,-4.879375955063261147e-03,-2.233505242908941871e-03,-8.608273890855420952e-05,1.421060708722481991e-03,2.191203387294234951e-03,2.191570984220964167e-03,1.462336858474079862e-03,1.130641811878740715e-04,-1.691845628469705728e-03,-3.753527820206812617e-03,-5.859709387014727829e-03,-7.804170749496791917e-03,-9.404737238405007360e-03,-1.052014185600524607e-02,-1.106483452912247409e-02,-1.101941308474229698e-02,-1.043362026608180004e-02,-9.419518958705651313e-03,-8.135246363008654877e-03,-6.763318988740672603e-03,-5.488638903052418111e-03,-4.479346737827650041e-03,-3.871319352783403420e-03,-3.756642501523028976e-03,-4.176639979872879237e-03,-5.119206901899969915e-03,-6.519125788257769567e-03,-8.260712895542102197e-03,-1.018403582184316224e-02,-1.209670810176151357e-02,-1.379228072327464728e-02,-1.507439495116104540e-02,-1.578330563511283480e-02,-1.581899594192304193e-02,-1.515506118082537469e-02,-1.384040084866561791e-02,-1.198982818416882874e-02,-9.767796091461080493e-03,-7.369685263585248197e-03,-5.002464596220547628e-03,-2.864313077431492917e-03,-1.124353984876012586e-03,9.337798335824384324e-05,7.189576683114592276e-04,7.405786387913208205e-04,2.063240191381047822e-04,-7.782163896275293277e-04,-2.060977303793245195e-03,-3.463902334887472827e-03,-4.808718984098518841e-03,-5.942405857484173506e-03,-6.757597006805343351e-03,-7.204518541183307402e-03,-7.293456996473917514e-03,-7.089327804164431528e-03,-6.700511036513387073e-03,-6.263117737374106556e-03,-5.921799151986751469e-03,-5.809982927586471169e-03,-6.033667751705677242e-03,-6.661508186286817582e-03,-7.720995574388821690e-03,-9.198459756404512785e-03,-1.104033328439827169e-02,-1.315431052558789678e-02,-1.541089613473029321e-02,-1.764741636676893724e-02,-1.967700028475759949e-02,-2.130374801865613302e-02,-2.234258848636121869e-02,-2.263980485313166202e-02,-2.208983427259418597e-02,-2.064627655033437342e-02,-1.832804644209301212e-02,-1.522213810918418044e-02,-1.148209014165583498e-02,-7.318840086381971088e-03,-2.981365387505433267e-03,1.271044054473942538e-03,5.198456498155633668e-03,8.605686072368931572e-03,1.136097461389165911e-02,1.340716192772945653e-02,1.476357549809672806e-02,1.551779727406195700e-02,1.580944459085332696e-02,1.580967885396661679e-02,1.569982267158805816e-02,1.565200182975176602e-02,1.581425399182582320e-02,1.630096150311239472e-02,1.718733896227998825e-02,1.850607941921793634e-02,2.024554123821055429e-02,2.235049066245425181e-02,2.472727767962904638e-02,2.725470142827434925e-02,2.979915427459787700e-02,3.222983395158026537e-02,3.443063771747717494e-02,3.630986650454802456e-02,3.781148420822790651e-02,3.892834145280733849e-02,3.971247746297802694e-02,4.027657840167917641e-02,4.078367143038213322e-02,4.142542474269382546e-02,4.239212213788373651e-02,4.384008965842913635e-02,4.586421596141539159e-02,4.848280299968653340e-02,5.163872609629819449e-02,5.521580331072386411e-02,5.906472420624651887e-02,6.303052567116534943e-02,6.697376275060652751e-02,7.078041174647259348e-02,7.436068920286974249e-02,7.764207175839583919e-02,8.056379387499720823e-02,8.307706780967824556e-02,8.514877719646556098e-02,8.676246382562588511e-02,8.791376284588961476e-02,8.860424475213005135e-02,8.883958807797028012e-02,8.863319605229171005e-02,8.801108588309652925e-02,8.701371960019027574e-02,8.569383838541146103e-02,8.411204436066284373e-02,8.233301624276023745e-02,8.042495552439994644e-02,7.846196709461367158e-02,7.652545389874795823e-02,7.470059644409703103e-02,7.306795600188467632e-02,7.169405293077224517e-02,7.062482844490479417e-02,6.988241665318233042e-02,6.946252533111943461e-02,6.933072085906125115e-02,6.942012365673695673e-02,6.963553977962830266e-02,6.986655851207883294e-02,7.000661251135363583e-02,6.997151566099991948e-02,6.971217250451676450e-02,6.921971670360566042e-02,6.852378431086331156e-02,6.768518029065960506e-02,6.678398263508993071e-02,6.590415404703343916e-02,6.511643852273703292e-02,6.446217909847141991e-02,6.394116652997999806e-02,6.350692480591865752e-02,6.307169895220438027e-02,6.251969971407525528e-02,6.172392134517754730e-02,6.056222333154082094e-02,5.893067259105780331e-02,5.675353391403448883e-02,5.398944857465418773e-02,5.063339665865033978e-02,4.671481588746067420e-02,4.229306852670946387e-02,3.745128868539835537e-02,3.228915293902282629e-02,2.691509996848452657e-02,2.143843751919830357e-02,1.596156647709505785e-02,1.057295922614852161e-02,5.342090962984764706e-03,3.170040681355942966e-04,-4.475998737169385559e-03,-9.031099659885839445e-03,-1.335962479947439691e-02,-1.748360091185335516e-02,-2.142613374526506492e-02,-2.520071046108315199e-02,-2.880360549867094777e-02,-3.221292665743019645e-02,-3.539419079072428365e-02,-3.830882346421549123e-02,-4.092129951175225988e-02,-4.320273108124712824e-02,-4.513171586294810467e-02,-4.669499596730142255e-02,-4.788962767231173118e-02,-4.872571540400016249e-02,-4.922736549238384413e-02,-4.943117390590991839e-02,-4.938385124927258119e-02,-4.914037326033304787e-02,-4.876207333768949742e-02,-4.831331910328368062e-02,-4.785657749410678063e-02,-4.744684049391179742e-02,-4.712655655566054536e-02,-4.692239742291358373e-02,-4.684538603788567651e-02,-4.689497089734509516e-02,-4.706560777571042881e-02,-4.735253315095201698e-02,-4.775349799076912538e-02,-4.826606434312644134e-02,-4.888310039265902213e-02,-4.958918371518501733e-02,-5.035852245285100948e-02,-5.115396776823032121e-02,-5.192788295034108520e-02,-5.262675238679884182e-02,-5.319979098677337509e-02,-5.360878245585732477e-02,-5.383565979536140272e-02,-5.388638170352581108e-02,-5.379166878893422432e-02,-5.360554502731806892e-02,-5.340212867201675484e-02,-5.327076741500399309e-02,-5.330927460982470140e-02,-5.361440490308224532e-02,-5.426890186896052987e-02,-5.532646441925468533e-02,-5.679853574574383196e-02,-5.864765417801431208e-02,-6.079037181362192260e-02,-6.310922776809864410e-02,-6.546975783739752974e-02,-6.773744179570732882e-02,-6.979173148125317194e-02,-7.153724713084980147e-02,-7.291302104404392970e-02,-7.389996660773708037e-02,-7.452610550224468555e-02,-7.486832386888860047e-02,-7.504879243819495560e-02,-7.522510296329669444e-02,-7.557543618340410718e-02,-7.628131258283642191e-02,-7.750943996034710681e-02,-7.939220661778376154e-02,-8.200588765626955212e-02,-8.534850044207133168e-02,-8.932423997850238995e-02,-9.374314027638996905e-02,-9.833914084643458065e-02,-1.028010279022451012e-01,-1.068068187600007130e-01,-1.100555857597810133e-01,-1.122961786193615447e-01,-1.133540711110980898e-01,-1.131555255777290797e-01,-1.117456574107197759e-01,-1.092958668695862279e-01,-1.060968379067615264e-01,-1.025354571618509320e-01,-9.905675789659997010e-02,-9.611466488831618693e-02,-9.411784647371600199e-02,-9.337891184542680689e-02,-9.407464837650157674e-02,-9.622140314119492777e-02,-9.966574412280922168e-02,-1.040882918113753552e-01,-1.090177320616588508e-01,-1.138522923463240744e-01,-1.178874490371024375e-01,-1.203506804853969603e-01,-1.204458824053013105e-01,-1.174100898447521246e-01,-1.105816012188295255e-01,-9.947235722319154594e-02,-8.383270165067222002e-02,-6.369714707580929891e-02,-3.940487077939175409e-02,-1.159483952505535251e-02,1.882026975659368412e-02,5.069637959960078544e-02,8.271329962237371214e-02,1.134413624744036869e-01,1.414189781721756356e-01,1.652416436350689355e-01,1.836612523210433279e-01,1.956897254687184895e-01,0.000000000000000000e+00,0.000000000000000000e+00,0.000000000000000000e+00,0.000000000000000000e+00,0.000000000000000000e+00,0.000000000000000000e+00,0.000000000000000000e+00,0.000000000000000000e+00,0.000000000000000000e+00,0.000000000000000000e+00,0.000000000000000000e+00,0.000000000000000000e+00,0.000000000000000000e+00,0.000000000000000000e+00,0.000000000000000000e+00,0.000000000000000000e+00,0.000000000000000000e+00,0.000000000000000000e+00,0.000000000000000000e+00,0.000000000000000000e+00,0.000000000000000000e+00,0.000000000000000000e+00,0.000000000000000000e+00,0.000000000000000000e+00,0.000000000000000000e+00,0.000000000000000000e+00,0.000000000000000000e+00,0.000000000000000000e+00,0.000000000000000000e+00,0.000000000000000000e+00,0.000000000000000000e+00,0.000000000000000000e+00,0.000000000000000000e+00,0.000000000000000000e+00,0.000000000000000000e+00,0.000000000000000000e+00,0.000000000000000000e+00,0.000000000000000000e+00,0.000000000000000000e+00,0.000000000000000000e+00,0.000000000000000000e+00,0.000000000000000000e+00,0.000000000000000000e+00,0.000000000000000000e+00,0.000000000000000000e+00,0.000000000000000000e+00,0.000000000000000000e+00,0.000000000000000000e+00,0.000000000000000000e+00,0.000000000000000000e+00,0.000000000000000000e+00,0.000000000000000000e+00,0.000000000000000000e+00,0.000000000000000000e+00,0.000000000000000000e+00,0.000000000000000000e+00,0.000000000000000000e+00,0.000000000000000000e+00,0.000000000000000000e+00,0.000000000000000000e+00,0.000000000000000000e+00,0.000000000000000000e+00,0.000000000000000000e+00,0.000000000000000000e+00,0.000000000000000000e+00,0.000000000000000000e+00,0.000000000000000000e+00,0.000000000000000000e+00,0.000000000000000000e+00,0.000000000000000000e+00,0.000000000000000000e+00,0.000000000000000000e+00,0.000000000000000000e+00,0.000000000000000000e+00,0.000000000000000000e+00,0.000000000000000000e+00,0.000000000000000000e+00,0.000000000000000000e+00,0.000000000000000000e+00,0.000000000000000000e+00,0.000000000000000000e+00,0.000000000000000000e+00,0.000000000000000000e+00,0.000000000000000000e+00,0.000000000000000000e+00,0.000000000000000000e+00,0.000000000000000000e+00,0.000000000000000000e+00,0.000000000000000000e+00,0.000000000000000000e+00,0.000000000000000000e+00,0.000000000000000000e+00,0.000000000000000000e+00,0.000000000000000000e+00,0.000000000000000000e+00,0.000000000000000000e+00,0.000000000000000000e+00,0.000000000000000000e+00,0.000000000000000000e+00,0.000000000000000000e+00,0.000000000000000000e+00,0.000000000000000000e+00,0.000000000000000000e+00,0.000000000000000000e+00,0.000000000000000000e+00,0.000000000000000000e+00,0.000000000000000000e+00,0.000000000000000000e+00,0.000000000000000000e+00,0.000000000000000000e+00,0.000000000000000000e+00,0.000000000000000000e+00,0.000000000000000000e+00,0.000000000000000000e+00,0.000000000000000000e+00,0.000000000000000000e+00,0.000000000000000000e+00,0.000000000000000000e+00,0.000000000000000000e+00,0.000000000000000000e+00,0.000000000000000000e+00,0.000000000000000000e+00,0.000000000000000000e+00,0.000000000000000000e+00,0.000000000000000000e+00,0.000000000000000000e+00,0.000000000000000000e+00,0.000000000000000000e+00,0.000000000000000000e+00,0.000000000000000000e+00,0.000000000000000000e+00,0.000000000000000000e+00,0.000000000000000000e+00,0.000000000000000000e+00,0.000000000000000000e+00,0.000000000000000000e+00,0.000000000000000000e+00,0.000000000000000000e+00,0.000000000000000000e+00,0.000000000000000000e+00,0.000000000000000000e+00,0.000000000000000000e+00,0.000000000000000000e+00,0.000000000000000000e+00,0.000000000000000000e+00,0.000000000000000000e+00,0.000000000000000000e+00,0.000000000000000000e+00,0.000000000000000000e+00,0.000000000000000000e+00,0.000000000000000000e+00,0.000000000000000000e+00,0.000000000000000000e+00,0.000000000000000000e+00,0.000000000000000000e+00,0.000000000000000000e+00,0.000000000000000000e+00,0.000000000000000000e+00,0.000000000000000000e+00,0.000000000000000000e+00,0.000000000000000000e+00,0.000000000000000000e+00,0.000000000000000000e+00,0.000000000000000000e+00
2.006962092819293275e-01,1.984846910920584073e-01,1.893392944512913845e-01,1.740269355149575148e-01,1.537502414461445754e-01,1.300485957140881665e-01,1.046539878624518222e-01,7.931980406592538391e-02,5.564966904876010589e-02,3.495418700192028105e-02,1.815450487168098273e-02,5.739000265272570581e-03,-2.229536925882969096e-03,-6.063391715887971739e-03,-6.366476689064634598e-03,-3.930906134443185387e-03,3.724741571680369656e-04,5.696413558889070437e-03,1.130174420018804915e-02,1.661715142510129806e-02,2.127100960119735970e-02,2.509443096715574528e-02,2.809629453692974801e-02,3.041404542227062885e-02,3.224991478757946450e-02,3.380783281610127977e-02,3.524577990232492797e-02,3.665061115573327311e-02,3.803340326839634716e-02,3.933885131694699056e-02,4.046229268933398265e-02,4.126967248146094780e-02,4.161787436920946770e-02,4.137499137691473539e-02,4.044071783727689468e-02,3.876518928875287429e-02,3.636222534774002230e-02,3.331272730896571443e-02,2.975655678637277590e-02,2.587492019666907950e-02,2.186775752684001414e-02,1.793087092242656722e-02,1.423630600191932646e-02,1.091781367381699196e-02,8.061785973136992994e-03,5.703696796106122284e-03,3.830370884432435750e-03,2.387638765123545771e-03,1.291093976950432329e-03,4.373109410471243933e-04,-2.849212963514414251e-04,-9.827213444330161647e-04,-1.748735930050285227e-03,-2.656261144477607000e-03,-3.760104765389440419e-03,-5.098325486783475413e-03,-6.690071638333482985e-03,-8.529356594322327553e-03,-1.057833030466450407e-02,-1.276384747182150552e-02,-1.497979000209538787e-02,-1.709636177162249249e-02,-1.897588802611068284e-02,-2.049257741409591174e-02,-2.155215635078032779e-02,-2.210654205269926842e-02,-2.215954006920188915e-02,-2.176287676808482882e-02,-2.100628515027849752e-02,-2.000706215223426940e-02,-1.890151206588431068e-02,-1.783666728621222108e-02,-1.696039926300924733e-02,-1.641001952826606769e-02,-1.630027587408001966e-02,-1.671194282194623029e-02,-1.768251823696391847e-02,-1.919975515131858157e-02,-2.119804111269426444e-02,-2.355865174135175072e-02,-2.611657501129128686e-02,-2.867624975742913418e-02,-3.103510286881175362e-02,-3.300980003463463430e-02,-3.445902946010669793e-02,-3.529837369448686479e-02,-3.550540782214779700e-02,-3.511569164773721552e-02,-3.421197800555234037e-02,-3.290888362211689955e-02,-3.133508772712304685e-02,-2.961646828078250485e-02,-2.786393806165647982e-02,-2.616728863849378597e-02,-2.459421487206125273e-02,-2.319342998950651644e-02,-2.200013449669908916e-02,-2.104122759582992622e-02,-2.033827321636462460e-02,-1.990737993534473504e-02,-1.975601450335156412e-02,-1.987830272772674739e-02,-2.025186504163487000e-02,-2.083877619801140224e-02,-2.159099096646395488e-02,-2.245822591141388713e-02,-2.339534030474236040e-02,-2.436704120909161456e-02,-2.534884606304448063e-02,-2.632411793999744551e-02,-2.727858851117640274e-02,-2.819504569444163458e-02,-2.905007049015638845e-02,-2.981301082714221326e-02,-3.044643592721806014e-02,-3.090712387795112315e-02,-3.114726728403958977e-02,-3.111699762216611417e-02,-3.077006704445128804e-02,-3.007349526262825812e-02,-2.901970726332717132e-02,-2.763694646134543659e-02,-2.599209218584785583e-02,-2.418209327236183620e-02,-2.231631266212548426e-02,-2.049770792134200312e-02,-1.881043801142839866e-02,-1.731534144295406030e-02,-1.604957970197283187e-02,-1.502758143820391058e-02,-1.424413003829192066e-02,-1.368130981237877103e-02,-1.331859350583263109e-02,-1.314296249555850504e-02,-1.315548305932716551e-02,-1.337189111741248632e-02,-1.381658594328243582e-02,-1.451141996081765050e-02,-1.546258685555624082e-02,-1.665011630603002724e-02,-1.802379698228242372e-02,-1.950647887066419076e-02,-2.100227354665749890e-02,-2.240570456802186416e-02,-2.360946701843128631e-02,-2.451138660653906162e-02,-2.502228695053179686e-02,-2.507498304963654695e-02,-2.463285727999768582e-02,-2.369599421288922508e-02,-2.230300737442516071e-02,-2.052745179119051105e-02,-1.846952399697084080e-02,-1.624520308940389721e-02,-1.397464884574210059e-02,-1.177086307527112040e-02,-9.729812552752081095e-03,-7.923117329775896181e-03,-6.393182825746118042e-03,-5.150116832984667076e-03,-4.170714316502139446e-03,-3.400541000171902837e-03,-2.759806456568118446e-03,-2.153152101938872031e-03,-1.483051426010854618e-03,-6.656532838499698871e-04,3.532869045209480695e-04,1.585670509072507417e-03,2.995082499123139126e-03,4.500055918010875851e-03,5.986610057108359556e-03,7.327679619887805286e-03,8.405588207753231580e-03,9.133222371644662829e-03,9.469661056383813294e-03,9.426709538438077240e-03,9.064714256768722361e-03,8.478961809453821816e-03,7.780551512401003705e-03,7.076854100348676027e-03,6.456039407282401603e-03,5.978040500138381667e-03,5.672410101875480400e-03,5.542675715730873386e-03,5.575547891379289966e-03,5.751226463692546940e-03,6.050738395147226521e-03,6.458998984349923270e-03,6.964810076328998775e-03,7.558575427000180542e-03,8.227756658072914869e-03,8.951632980066693765e-03,9.698023098173386147e-03,1.042305650581669754e-02,1.107348931095344761e-02,1.159116220617218210e-02,1.191940397245423548e-02,1.201080139673725566e-02,1.183551955202433344e-02,1.138911287385010497e-02,1.069808252694359404e-02,9.821198100561676775e-03,8.845823005459139271e-03,7.880113407890361465e-03,7.042317789862793422e-03,6.448148946599032566e-03,6.197725053920101305e-03,6.364084785842083133e-03,6.984817424382245427e-03,8.057807160783182071e-03,9.541844385307073420e-03,1.136185181785543535e-02,1.341708222093428333e-02,1.559067498829196444e-02,1.775994282204455474e-02,1.980678961252516426e-02,2.162738226910256370e-02,2.314095993103712154e-02,2.429810458060217143e-02,2.508751002357523588e-02,2.553908222957600865e-02,2.572239055369027194e-02,2.574146734380377416e-02,2.572650309854088851e-02,2.582141291267807739e-02,2.616728678417922990e-02,2.688429869495879629e-02,2.805495378776183546e-02,2.971002450654482499e-02,3.181845878726777960e-02,3.428425910126867149e-02,3.695341844496390776e-02,3.963071120250209051e-02,4.210276343080673195e-02,4.416317574461194745e-02,4.563575213852547746e-02,4.639199845112139398e-02,4.636058813075866203e-02,4.552910997547290894e-02,4.394002134872056209e-02,4.168293262917097813e-02,3.888501173219687662e-02,3.570072538453729349e-02,3.230128416343099051e-02,2.886350928314974570e-02,2.555796216140972243e-02,2.253675364521160948e-02,1.992163357925450309e-02,1.779306515097013944e-02,1.618218945245171805e-02,1.506895797631728311e-02,1.438845488546854415e-02,1.404353384725062943e-02,1.391924060704079376e-02,1.389565037114051313e-02,1.385880414452218129e-02,1.371146423653975439e-02,1.338508691392204485e-02,1.285132874040149399e-02,1.212797272417766130e-02,1.127465942074839904e-02,1.037818636239147205e-02,9.531295134336665448e-03,8.810647166773948394e-03,8.259723986022191045e-03,7.881147853566578335e-03,7.640006289079474301e-03,7.475593996681335549e-03,7.316045621275140028e-03,7.091029975024102684e-03,6.740625791977278986e-03,6.220160154588574332e-03,5.501004184827922375e-03,4.568363952227263818e-03,3.418270754319281679e-03,2.055139711025275213e-03,4.897010452208938082e-04,-1.262827234731337235e-03,-3.183505236683840164e-03,-5.248498477088290627e-03,-7.425609831774870884e-03,-9.668425560035057847e-03,-1.190888714609027003e-02,-1.405141130787113980e-02,-1.597353029245243347e-02,-1.753678495028810139e-02,-1.860735614133049443e-02,-1.908147078417407605e-02,-1.890875379159132064e-02,-1.810770946842537102e-02,-1.676954869220761285e-02,-1.504867002830008980e-02,-1.314097462782756916e-02,-1.125465189774663664e-02,-9.580498946920886980e-03,-8.268945229165585581e-03,-7.417990687145352945e-03,-7.070934207986231609e-03,-7.219004125981156282e-03,-7.805234773529325099e-03,-8.729820436837086584e-03,-9.858994618237778076e-03,-1.103836375358103507e-02,-1.210979557341620300e-02,-1.292989676168405759e-02,-1.338761590907883679e-02,-1.341833143624180172e-02,-1.301244941501013622e-02,-1.221773339601152364e-02,-1.113505163268990218e-02,-9.907298663042515136e-03,-8.702521734381551619e-03,-7.694365771292469014e-03,-7.043803478424553836e-03,-6.884947624612420582e-03,-7.315409885353100009e-03,-8.389730735564138869e-03,-1.011422751074431831e-02,-1.244321334498808829e-02,-1.527855756020352236e-02,-1.847494206781354759e-02,-2.185092631027015300e-02,-2.520341540767044239e-02,-2.832311250972047167e-02,-3.100963644318728216e-02,-3.308514660790169704e-02,-3.440566750637334692e-02,-3.487022931216859217e-02,-3.442793847985238520e-02,-3.308247635193385661e-02,-3.089345059769266905e-02,-2.797413202425172787e-02,-2.448495689444505838e-02,-2.062230384890541973e-02,-1.660314318254704075e-02,-1.264769041666819437e-02,-8.962631785521172831e-03,-5.726708441543134145e-03,-3.079511073196272881e-03,-1.113174614119616249e-03,1.344319791559185780e-04,6.856929733624532539e-04,6.264660200807302664e-04,1.026225258134955354e-04,-6.935735255489389574e-04,-1.548083960573999260e-03,-2.257409065994787044e-03,-2.661481681477041294e-03,-2.669146466539519102e-03,-2.270583534521944131e-03,-1.534826199654986756e-03,-5.945577058302396398e-04,3.766264370825461228e-04,1.189276425413800502e-03,1.662542798948979167e-03,1.646336016021099358e-03,1.038707176591808709e-03,-2.039508882864067758e-04,-2.063614227367765314e-03,-4.461731392056632849e-03,-7.263738570867665258e-03,-1.028894921297210038e-02,-1.332737622620300960e-02,-1.616169630033664414e-02,-1.859012197710648712e-02,-2.044580077839605950e-02,-2.160978640608957405e-02,-2.201716111869272269e-02,-2.165836450810328107e-02,-2.057790477112554986e-02,-1.887012226215975877e-02,-1.666981403581586571e-02,-1.413703009146592693e-02,-1.143870801512481862e-02,-8.731600358673617668e-03,-6.150006865352714361e-03,-3.799560138060131907e-03,-1.756242385905699196e-03,-6.850642041380850021e-05,1.240038875886578709e-03,2.169448588319290890e-03,2.744208859700999342e-03,3.013661859348567076e-03,3.048069967164169537e-03,2.928196166524474862e-03,2.730761278150437097e-03,2.514930939470072773e-03,2.313760817333371331e-03,2.131243887023964809e-03,1.943679506174046927e-03,1.704460957788845070e-03,1.352091714269635985e-03,8.211492385983348505e-04,5.576436645963223521e-05,-9.754230568064090794e-04,-2.265780358572551650e-03,-3.763173823534047679e-03,-5.371824704030166500e-03,-6.963552011192523927e-03,-8.395537294837416425e-03,-9.530975319704934959e-03,-1.025896864499285799e-02,-1.050965074533800371e-02,-1.026138495866246725e-02,-9.539469207360828235e-03,-8.408122862524637295e-03,-6.959104404074003235e-03,-5.300907337615992122e-03,-3.550519919912511861e-03,-1.826719482895971559e-03,-2.437891897235972178e-04,1.093628391387635544e-03,2.094575635655241547e-03,2.687056319053855984e-03,2.825808600032756520e-03,2.499895140888577089e-03,1.735948985331037210e-03,5.957760185468591535e-04,-8.295593428462878218e-04,-2.426875378003852824e-03,-4.068558234432496749e-03,-5.619721998749748967e-03,-6.942973320778034196e-03,-7.901960444893777608e-03,-8.368903754839710288e-03,-8.239447620077300707e-03,-7.451487888080913190e-03,-6.000190766792949312e-03,-3.942009813287928113e-03,-1.384521678277305084e-03,1.535137976980433189e-03,4.675230425066320521e-03,7.909148564687580943e-03,1.113550430758604090e-02,1.427900647019699626e-02,1.728516953740775672e-02,2.011267539092091716e-02,2.272692191844546614e-02,2.509679081812896118e-02,2.719490190785596798e-02,2.900130433745413960e-02,3.051088465872452832e-02,3.174299008982734566e-02,3.274864972476850683e-02,3.361067385191087581e-02,3.443563847470875600e-02,3.534038746480633320e-02,3.643649492099556436e-02,3.781477777689269681e-02,3.953071394733628091e-02,4.159251095616293969e-02,4.395549818581422075e-02,4.652627715886466925e-02,4.917715919946923087e-02,5.176818261183850634e-02,5.417194852149026518e-02,5.629566746777978081e-02,5.809537079223206502e-02,5.957953037640480870e-02,6.080222565079459324e-02,6.184819880276271747e-02,6.281409327815344612e-02,6.379139853384575842e-02,6.485513304617862573e-02,6.605917798703908606e-02,6.743745701686644500e-02,6.900944135543470026e-02,7.078672737028239570e-02,7.277595736170414109e-02,7.497539509875411623e-02,7.736753641354068844e-02,7.991302627576765683e-02,8.254898900162760400e-02,8.519085576115982550e-02,8.773505632427811007e-02,9.006150001629853463e-02,9.203780822033699738e-02,9.352886120504780298e-02,9.441355782268096020e-02,9.460631617614295719e-02,9.407676398883949020e-02,9.286102390140311968e-02,9.106190522320076197e-02,8.883877654541244562e-02,8.638901825560338366e-02,8.392387614694563069e-02,8.164239602740491764e-02,7.970637530525373493e-02,7.821852581349650335e-02,7.720749351986437581e-02,7.662479364511635971e-02,7.635635971398553601e-02,7.624623344134917602e-02,7.612618954997864285e-02,7.584443377227541305e-02,7.528778053263468495e-02,7.439416195042142244e-02,7.315542650026893301e-02,7.161253260966830847e-02,6.984508560853326664e-02,6.795608890578536121e-02,6.605373375262837965e-02,6.423473024820998412e-02,6.257377672901341670e-02,6.111940999729408019e-02,5.989214048749236241e-02,5.888134059756950506e-02,5.804122062852853925e-02,5.728836375979249468e-02,5.650255790411130852e-02,5.553170265636075964e-02,5.420180363737207851e-02,5.233343636434013152e-02,4.976506853083673826e-02,4.638076531416686354e-02,4.213621169074249079e-02,3.707528567509420919e-02,3.133173759295226207e-02,2.511604495385446820e-02,1.869205233484759823e-02,1.234790774387804421e-02,6.363602277451023415e-03,9.786616970921672206e-04,-3.633474562774764542e-03,-7.379024137790512160e-03,-1.024433191295969631e-02,-1.228555079170500809e-02,-1.361213097475202916e-02,-1.436939661436452062e-02,-1.472330787573177500e-02,-1.484803573625746546e-02,-1.491637459144613820e-02,-1.509237876253625467e-02,-1.552408562831257381e-02,-1.633395717271568168e-02,-1.760708491483693044e-02,-1.938067808870090961e-02,-2.163917817909990701e-02,-2.431610911858015159e-02,-2.730067553180147086e-02,-3.044780127066698192e-02,-3.359208747732415207e-02,-3.656565045966144595e-02,-3.921780910185460739e-02,-4.143290601775311000e-02,-4.314222907025495185e-02,-4.432828462606677039e-02,-4.502351530865428969e-02,-4.530725071062741832e-02,-4.530229717287050789e-02,-4.516857026199778274e-02,-4.509006536979828783e-02,-4.525473381973001141e-02,-4.583108067301826932e-02,-4.694679261385593938e-02,-4.867337329799816675e-02,-5.101841887022128680e-02,-5.392514554890122380e-02,-5.727807980823114431e-02,-6.091423967799275418e-02,-6.463895820425534511e-02,-6.824413431877836278e-02,-7.152551879364899001e-02,-7.429612421737345762e-02,-7.639535041133062310e-02,-7.769615998876001906e-02,-7.811273247602663894e-02,-7.760851501013799059e-02,-7.620257850382995690e-02,-7.397240178261185739e-02,-7.105259563201854478e-02,-6.762962984783564557e-02,-6.393166119254892199e-02,-6.021250393687252456e-02,-5.673134654164323915e-02,-5.373183385360499886e-02,-5.142317865179807379e-02,-4.996487076402764821e-02,-4.945700191245284288e-02,-4.993762588909083505e-02,-5.138642646178449847e-02,-5.373322972146048898e-02,-5.687087203664577262e-02,-6.067173315238514469e-02,-6.500525887315054818e-02,-6.975245799062416985e-02,-7.481421168455862358e-02,-8.011260996959772285e-02,-8.558669202481139493e-02,-9.118450638231702376e-02,-9.685301166621212987e-02,-1.025277989987398719e-01,-1.081255813681717692e-01,-1.135420450100437101e-01,-1.186559937714795621e-01,-1.233392419967607734e-01,-1.274706849068624193e-01,-1.309516492722929137e-01,-1.337187106203777953e-01,-1.357511391346931384e-01,-1.370724693235382263e-01,-1.377475090245771361e-01,-1.378767023355608468e-01,-1.375893299278081183e-01,-1.370356013557811892e-01,-1.363760362900767742e-01,-1.357667674131755597e-01,-1.353424419474116291e-01,-1.352013008946085504e-01,-1.353959736469056707e-01,-1.359290252135161581e-01,-1.367483902217834224e-01,-1.377376152802453901e-01,-1.386997156725254254e-01,-1.393395813441786202e-01,-1.392539822383486170e-01,-1.379368375697570259e-01,-1.348029569582255838e-01,-1.292306110583505141e-01,-1.206212643929995970e-01,-1.084706653275795268e-01,-9.244093879877393616e-02,-7.242195661765055137e-02,-4.857281943533751922e-02,-2.133904618748384135e-02,8.554110273306774967e-03,4.012846710316937682e-02,7.219593394688622601e-02,1.034173270867587979e-01,1.323796896977301185e-01,1.576928168807116282e-01,1.780990678803610616e-01,1.925843164441061739e-01,2.004765129914278798e-01,0.000000000000000000e+00,0.000000000000000000e+00,0.000000000000000000e+00,0.000000000000000000e+00,0.000000000000000000e+00,0.000000000000000000e+00,0.000000000000000000e+00,0.000000000000000000e+00,0.000000000000000000e+00,0.000000000000000000e+00,0.000000000000000000e+00,0.000000000000000000e+00,0.000000000000000000e+00,0.000000000000000000e+00,0.000000000000000000e+00,0.000000000000000000e+00,0.000000000000000000e+00,0.000000000000000000e+00,0.000000000000000000e+00,0.000000000000000000e+00,0.000000000000000000e+00,0.000000000000000000e+00,0.000000000000000000e+00,0.000000000000000000e+00,0.000000000000000000e+00,0.000000000000000000e+00,0.000000000000000000e+00,0.000000000000000000e+00,0.000000000000000000e+00,0.000000000000000000e+00,0.000000000000000000e+00,0.000000000000000000e+00,0.000000000000000000e+00,0.000000000000000000e+00,0.000000000000000000e+00,0.000000000000000000e+00,0.000000000000000000e+00,0.000000000000000000e+00,0.000000000000000000e+00,0.000000000000000000e+00,0.000000000000000000e+00,0.000000000000000000e+00,0.000000000000000000e+00,0.000000000000000000e+00,0.000000000000000000e+00,0.000000000000000000e+00,0.000000000000000000e+00,0.000000000000000000e+00,0.000000000000000000e+00,0.000000000000000000e+00,0.000000000000000000e+00,0.000000000000000000e+00,0.000000000000000000e+00,0.000000000000000000e+00,0.000000000000000000e+00,0.000000000000000000e+00,0.000000000000000000e+00,0.000000000000000000e+00,0.000000000000000000e+00,0.000000000000000000e+00,0.000000000000000000e+00,0.000000000000000000e+00,0.000000000000000000e+00,0.000000000000000000e+00,0.000000000000000000e+00,0.000000000000000000e+00,0.000000000000000000e+00,0.000000000000000000e+00,0.000000000000000000e+00,0.000000000000000000e+00,0.000000000000000000e+00,0.000000000000000000e+00,0.000000000000000000e+00,0.000000000000000000e+00,0.000000000000000000e+00,0.000000000000000000e+00,0.000000000000000000e+00,0.000000000000000000e+00,0.000000000000000000e+00,0.000000000000000000e+00,0.000000000000000000e+00,0.000000000000000000e+00,0.000000000000000000e+00,0.000000000000000000e+00,0.000000000000000000e+00,0.000000000000000000e+00,0.000000000000000000e+00,0.000000000000000000e+00,0.000000000000000000e+00,0.000000000000000000e+00,0.000000000000000000e+00,0.000000000000000000e+00,0.000000000000000000e+00,0.000000000000000000e+00,0.000000000000000000e+00,0.000000000000000000e+00,0.000000000000000000e+00,0.000000000000000000e+00,0.000000000000000000e+00,0.000000000000000000e+00,0.000000000000000000e+00,0.000000000000000000e+00,0.000000000000000000e+00,0.000000000000000000e+00,0.000000000000000000e+00,0.000000000000000000e+00,0.000000000000000000e+00,0.000000000000000000e+00,0.000000000000000000e+00,0.000000000000000000e+00,0.000000000000000000e+00,0.000000000000000000e+00,0.000000000000000000e+00,0.000000000000000000e+00,0.000000000000000000e+00,0.000000000000000000e+00,0.000000000000000000e+00,0.000000000000000000e+00,0.000000000000000000e+00,0.000000000000000000e+00,0.000000000000000000e+00,0.000000000000000000e+00,0.000000000000000000e+00,0.000000000000000000e+00,0.000000000000000000e+00,0.000000000000000000e+00,0.000000000000000000e+00,0.000000000000000000e+00,0.000000000000000000e+00,0.000000000000000000e+00,0.000000000000000000e+00,0.000000000000000000e+00,0.000000000000000000e+00,0.000000000000000000e+00,0.000000000000000000e+00,0.000000000000000000e+00,0.000000000000000000e+00,0.000000000000000000e+00,0.000000000000000000e+00,0.000000000000000000e+00,0.000000000000000000e+00,0.000000000000000000e+00,0.000000000000000000e+00,0.000000000000000000e+00,0.000000000000000000e+00,0.000000000000000000e+00,0.000000000000000000e+00,0.000000000000000000e+00,0.000000000000000000e+00,0.000000000000000000e+00,0.000000000000000000e+00,0.000000000000000000e+00,0.000000000000000000e+00,0.000000000000000000e+00,0.000000000000000000e+00,0.000000000000000000e+00,0.000000000000000000e+00,0.000000000000000000e+00,0.000000000000000000e+00,0.000000000000000000e+00,0.000000000000000000e+00
2.015217508534246360e-01,1.959303853301150866e-01,1.843839114974249738e-01,1.679923925052980438e-01,1.481988922528402475e-01,1.266385644219333584e-01,1.049694152300532507e-01,8.469903049817456564e-02,6.703633226624666763e-02,5.279401077728143599e-02,4.235411086854266871e-02,3.569302514139112426e-02,3.244974076934080409e-02,3.201665693041869099e-02,3.363705860460905472e-02,3.650178157070668034e-02,3.984068665558323369e-02,4.300148006396444650e-02,4.550620287095915456e-02,4.707825313905813353e-02,4.763802738446776264e-02,4.727068332637775899e-02,4.617448415175826049e-02,4.460150349071723141e-02,4.280238062218265360e-02,4.098387263916149215e-02,3.928439317383435048e-02,3.776911107923139332e-02,3.644164523545392192e-02,3.526478439706388912e-02,3.418121147434256130e-02,3.312859839194189776e-02,3.204846198093885129e-02,3.089054206390146398e-02,2.961432046765717988e-02,2.818920673934797311e-02,2.659493117223704975e-02,2.482249515775227303e-02,2.287445854654085106e-02,2.076346933084376178e-02,1.850986115990328751e-02,1.614021470199002856e-02,1.368750278190370394e-02,1.119235603888835140e-02,8.705356094209127510e-03,6.289047808621282647e-03,4.015843440217201077e-03,1.959308287185619786e-03,1.816190707368348436e-04,-1.276922314937318191e-03,-2.402470780407958174e-03,-3.206282516705790970e-03,-3.719476862313499891e-03,-3.986273114176690918e-03,-4.057858481681241025e-03,-3.988683643189766884e-03,-3.836293614549245862e-03,-3.664499226615059932e-03,-3.547375807607070809e-03,-3.569491741211334654e-03,-3.818841762357803524e-03,-4.373879494231079461e-03,-5.290852551011069639e-03,-6.597153218478654137e-03,-8.290810132176796438e-03,-1.034168681548329125e-02,-1.269081220666514256e-02,-1.524876266992961776e-02,-1.789748012158632121e-02,-2.049926230965829280e-02,-2.291274477525068187e-02,-2.501207353961594146e-02,-2.670429578536022072e-02,-2.794091449606619232e-02,-2.872170176563692418e-02,-2.909121968987738588e-02,-2.912992991310972904e-02,-2.894215218043221655e-02,-2.864286642422007173e-02,-2.834461649915041154e-02,-2.814535003850343262e-02,-2.811851717687884056e-02,-2.830692906407727971e-02,-2.872090780491629719e-02,-2.934034517634956374e-02,-3.012001613050231674e-02,-3.099711800001699741e-02,-3.189962179019202593e-02,-3.275425376210246153e-02,-3.349339985690971688e-02,-3.406038124399343725e-02,-3.441250976403743833e-02,-3.452125765454766571e-02,-3.436935502515905266e-02,-3.394624866276733932e-02,-3.324439647949665316e-02,-3.225745855341199952e-02,-3.097941967963585910e-02,-2.940395088209619631e-02,-2.752600742975418874e-02,-2.534998434223114175e-02,-2.290627775262801466e-02,-2.026988683114341189e-02,-1.756824482420126995e-02,-1.496939748658260641e-02,-1.265325516859473927e-02,-1.077683093632983424e-02,-9.444072478556797892e-03,-8.686956828000046149e-03,-8.461669947871081759e-03,-8.660412304441591005e-03,-9.134274078577283087e-03,-9.719724087848562524e-03,-1.026371078320820369e-02,-1.064592917419747778e-02,-1.079588312767790215e-02,-1.070004757618882654e-02,-1.039743221020929080e-02,-9.967562222664550983e-03,-9.515510798061885267e-03,-9.154925724487502497e-03,-8.988883979081886341e-03,-9.091330655584923051e-03,-9.494377236678033100e-03,-1.018554338306306220e-02,-1.111514133894651868e-02,-1.221054530692755255e-02,-1.339274451865399979e-02,-1.459101364800302093e-02,-1.575284151678216574e-02,-1.684771108381308974e-02,-1.786493148935513683e-02,-1.880771287036980127e-02,-1.968681962739312827e-02,-2.051598489187833954e-02,-2.130889932167209788e-02,-2.207636912061670606e-02,-2.282277622191238378e-02,-2.354200279488999348e-02,-2.421334274036653425e-02,-2.479794756331695285e-02,-2.523696823331939357e-02,-2.545339239386036970e-02,-2.535926550604454890e-02,-2.486813938957281589e-02,-2.391064214756173645e-02,-2.245048410175826126e-02,-2.049821773007733106e-02,-1.811913545602880302e-02,-1.543135239311452939e-02,-1.259323782007941255e-02,-9.784085552400640512e-03,-7.183097845641236989e-03,-4.949033224411385559e-03,-3.201184772861445128e-03,-2.004275893908049385e-03,-1.362170877450536496e-03,-1.223562148129599169e-03,-1.497120192522851181e-03,-2.068829361801170514e-03,-2.814722590307471711e-03,-3.607485788254968361e-03,-4.320814774103273748e-03,-4.836548938462290927e-03,-5.056331387930624970e-03,-4.915447854304159404e-03,-4.394476419268172722e-03,-3.524632461156803481e-03,-2.384400834892238304e-03,-1.087437118441158482e-03,2.359149687580198399e-04,1.459274422113184455e-03,2.478223693325935610e-03,3.222012521226788953e-03,3.657390616650561723e-03,3.785044980382210305e-03,3.630743990599789774e-03,3.233942511625538009e-03,2.636832023077607511e-03,1.877071040112631654e-03,9.858820522397077762e-04,-1.003749948810409514e-05,-1.085385020315880397e-03,-2.212643679120286297e-03,-3.358051149412976267e-03,-4.478823447762963691e-03,-5.523616130108657644e-03,-6.435784570675211029e-03,-7.157266834569737772e-03,-7.632020999998019931e-03,-7.809494753381339242e-03,-7.648551338522314308e-03,-7.121819988307863218e-03,-6.220509541631755006e-03,-4.959461289107769053e-03,-3.381279777549607221e-03,-1.557637908479471509e-03,4.138594938060770659e-04,2.417395021086335936e-03,4.329662945793121519e-03,6.031484910847298778e-03,7.418676429987861205e-03,8.410978569822860282e-03,8.958603990739114759e-03,9.046888128873845081e-03,8.699438261884866533e-03,7.979234467369892767e-03,6.986738541200164694e-03,5.854313851452366824e-03,4.736375554055042431e-03,3.794879705837858781e-03,3.180983228371827166e-03,3.015856236066421971e-03,3.375010766841019839e-03,4.279658925503301153e-03,5.696161058668619374e-03,7.542357976027726923e-03,9.698291641901023163e-03,1.201848118137887125e-02,1.434370225817756597e-02,1.651194489985491343e-02,1.836978660555853293e-02,1.978561842037744947e-02,2.066478278552639700e-02,2.096414912757789406e-02,2.070122058097923975e-02,1.995326920114658814e-02,1.884615634605065274e-02,1.753664254619659302e-02,1.619253728961742023e-02,1.497333621315152796e-02,1.401305590874053070e-02,1.340714041830934691e-02,1.320519776848840844e-02,1.341046345428587722e-02,1.398557225023626914e-02,1.486258219203661496e-02,1.595416253345370919e-02,1.716370048637600246e-02,1.839402408261305022e-02,1.955551249169310349e-02,2.057399779220450697e-02,2.139737392084722217e-02,2.199821491529569545e-02,2.237038666623851479e-02,2.252122234026576394e-02,2.246394205316793943e-02,2.221451335331211044e-02,2.179365060313534150e-02,2.123097360642750564e-02,2.056712210010980257e-02,1.985131154933568107e-02,1.913449152261191902e-02,1.846020765503155608e-02,1.785624296256826948e-02,1.732970271116588204e-02,1.686601159696798566e-02,1.643029497560148655e-02,1.597034348105944718e-02,1.542242345153619146e-02,1.472088175068740103e-02,1.380958972462265240e-02,1.265162383103641576e-02,1.123561167932820432e-02,9.580153319638287299e-03,7.737492471980710919e-03,5.794712388329466279e-03,3.869323776090241151e-03,2.097861904023323124e-03,6.190312713232053610e-04,-4.449460137412117734e-04,-1.004303119742126814e-03,-1.011595773467567887e-03,-4.651901237536176879e-04,5.909822989619555478e-04,2.068930033592058463e-03,3.839453337952934784e-03,5.738269341534590375e-03,7.576904115476405105e-03,9.158385747819510966e-03,1.029699595716268394e-02,1.084044192236999909e-02,1.069057727800700255e-02,9.817409864869149419e-03,8.263094794000959073e-03,6.136096696031976584e-03,3.597537731965610129e-03,8.420459345075564407e-04,-1.924136607417062730e-03,-4.504472354459368791e-03,-6.729962174826855173e-03,-8.471919239749527153e-03,-9.649182365194804156e-03,-1.022949621071061327e-02,-1.022520245710529727e-02,-9.684824536739956163e-03,-8.683219740521148575e-03,-7.312109087655987300e-03,-5.671418714384950620e-03,-3.862370771697805870e-03,-1.984027335162549810e-03,-1.328744790341967249e-04,1.598040711688997889e-03,3.123764573467613034e-03,4.376241837502794010e-03,5.314728456419248216e-03,5.933681375088832068e-03,6.264169216717254372e-03,6.367232177832956273e-03,6.321263204645248372e-03,6.207958792771858976e-03,6.100850507896011382e-03,6.057445536528297328e-03,6.113360143967450783e-03,6.277243634086220221e-03,6.528189249022571874e-03,6.818837228816518152e-03,7.085070852679641040e-03,7.259253136193987745e-03,7.282272132662678810e-03,7.111522242291571684e-03,6.725172273666067853e-03,6.124794052965742280e-03,5.337849472651984804e-03,4.419720288864136849e-03,3.453238114470023271e-03,2.543209474669827150e-03,1.804727664093000753e-03,1.346414432028411297e-03,1.252133505590152752e-03,1.566295811687520032e-03,2.287503040833421906e-03,3.372101575726490531e-03,4.744291115685535243e-03,6.306522246872115801e-03,7.946294794364755845e-03,9.540937003672938024e-03,1.096461441459748928e-02,1.209935423274681975e-02,1.284741510855742438e-02,1.314011102261552870e-02,1.294005157478447104e-02,1.223830713168682846e-02,1.105146393099168921e-02,9.422737550172623211e-03,7.426829223390496448e-03,5.173966647909391398e-03,2.808244505515543159e-03,4.987933061327747084e-04,-1.574399492030373890e-03,-3.237790683888421093e-03,-4.343372869586845098e-03,-4.787659970158457574e-03,-4.527022468063826750e-03,-3.585558192446300623e-03,-2.053754321177794946e-03,-7.893810556729875382e-05,2.150071877987314289e-03,4.421736966760926417e-03,6.522440175126599862e-03,8.258284948059376948e-03,9.476760961249070664e-03,1.008517611939499341e-02,1.006192025973487274e-02,9.457583665969366768e-03,8.385043362660285493e-03,7.000596274326023258e-03,5.480827519308963634e-03,3.999965028702954367e-03,2.710375176479369857e-03,1.727295113238160821e-03,1.118530871624440334e-03,8.994428452076796412e-04,1.033337161851380663e-03,1.437914211587294116e-03,1.998286427926894600e-03,2.585323639124259207e-03,3.076157236470985958e-03,3.373102130497228259e-03,3.417724890570383953e-03,3.197601870737789599e-03,2.745089670312574146e-03,2.130164163013671501e-03,1.450564321347612038e-03,8.207242038526768157e-04,3.590148026368815480e-04,1.733564630216058368e-04,3.470369408339828263e-04,9.271148776102363688e-04,1.917372715602126253e-03,3.277827882158810928e-03,4.932119385685251531e-03,6.780554978513475377e-03,8.712643730195722414e-03,1.061405848312283948e-02,1.236894277251033604e-02,1.386227763193072920e-02,1.498533758581984190e-02,1.564419839047985830e-02,1.577015833833293745e-02,1.533054518682472160e-02,1.433748730560893518e-02,1.285211450116542468e-02,1.098313415597408117e-02,8.880229059950034420e-03,6.722712121548909438e-03,4.703074683470567265e-03,3.005293992650257592e-03,1.779735174617479501e-03,1.119203918932708394e-03,1.042473972541985454e-03,1.491065634748575935e-03,2.341777674889871600e-03,3.432361296379591534e-03,4.592950466897069775e-03,5.674276488241052421e-03,6.566489708350792091e-03,7.207156773721297253e-03,7.580357416489529737e-03,7.710439438192119230e-03,7.654557276650585454e-03,7.496356332166039492e-03,7.339394394798126435e-03,7.296893658861732142e-03,7.476463083250834210e-03,7.962387687637474329e-03,8.800538807026379862e-03,9.990879024409390560e-03,1.149070679774993713e-02,1.322845534164257021e-02,1.512361260888846204e-02,1.710540510475311998e-02,1.912332310292919405e-02,2.114639127944530073e-02,2.315339514802504037e-02,2.512020471339672031e-02,2.701092946045774434e-02,2.877726075429126035e-02,3.036673010806086037e-02,3.173686371289834163e-02,3.286935604501379365e-02,3.377814247539887016e-02,3.450833136926956257e-02,3.512761642989115779e-02,3.571493152254937020e-02,3.635089054211632087e-02,3.711201936753096703e-02,3.806833783284210154e-02,3.928265606609130517e-02,4.080969764281772161e-02,4.269340281012508342e-02,4.496151988919452197e-02,4.761820487957229425e-02,5.063739590326578333e-02,5.396020705803004219e-02,5.749774331088688267e-02,6.113868225026005548e-02,6.475987957223354463e-02,6.823768363515250734e-02,7.145820541618523591e-02,7.432626931086737387e-02,7.677320517284780266e-02,7.876310544826706228e-02,8.029719034721366500e-02,8.141581002526564192e-02,8.219663895684659050e-02,8.274762734416092613e-02,8.319516316115913024e-02,8.366969754951306126e-02,8.429121463494586297e-02,8.515594879178646492e-02,8.632511017795956032e-02,8.781663185076100941e-02,8.960102955904473976e-02,9.160161664967950146e-02,9.369879241900691547e-02,9.573881168610424985e-02,9.754774134410311437e-02,9.894984048205614224e-02,9.978802184398725961e-02,9.994427231367601638e-02,9.935860579262717485e-02,9.804413916767271142e-02,9.609389387066574750e-02,9.367452730933482907e-02,9.100535670767409546e-02,8.832699194934862108e-02,8.586805886100586094e-02,8.381711733774242779e-02,8.230290426300934659e-02,8.138433721046922642e-02,8.105144750815687638e-02,8.123638160596660662e-02,8.183040930668671054e-02,8.270147307487289712e-02,8.370832719749722595e-02,8.470992749037452307e-02,8.557056815204756861e-02,8.616226988876610204e-02,8.636605683970757785e-02,8.607316998032671362e-02,8.518743148578250546e-02,8.363097235580303768e-02,8.135484504866861977e-02,7.835211580667519882e-02,7.466662104682197931e-02,7.039101177614810745e-02,6.565407316665676507e-02,6.060379905183473082e-02,5.539336310466949631e-02,5.017206160440981777e-02,4.507779045421377723e-02,4.022683911855230027e-02,3.570092390840971103e-02,3.153598123738813458e-02,2.771808421493652738e-02,2.418900808719669573e-02,2.086048070292800816e-02,1.763334407840922227e-02,1.441580643722136998e-02,1.113562744257666666e-02,7.744964996784910703e-03,4.220314925050128695e-03,5.609110128095739145e-04,-3.212343762599337727e-03,-7.057232829071648228e-03,-1.091038261474935531e-02,-1.468726458497971593e-02,-1.828276499804846675e-02,-2.157528391873170942e-02,-2.443803440475794328e-02,-2.675788406304630690e-02,-2.845665320719975230e-02,-2.950737376719069632e-02,-2.994115882712419449e-02,-2.984567523173353720e-02,-2.935857298043892394e-02,-2.865763112693986772e-02,-2.794697098680383462e-02,-2.743809886934406306e-02,-2.732583336137483707e-02,-2.776132841506430068e-02,-2.882670139717525767e-02,-3.051737444685416120e-02,-3.273770748766304667e-02,-3.531204993297790140e-02,-3.800844913892453131e-02,-4.056922028757658366e-02,-4.274290658827854111e-02,-4.431369634104722482e-02,-4.512521873099641784e-02,-4.509628753520877192e-02,-4.422710255186568934e-02,-4.259602457305865231e-02,-4.034931463351981717e-02,-3.768724005901137597e-02,-3.484830693062566237e-02,-3.209077830653171010e-02,-2.967007740635465088e-02,-2.781359576563964889e-02,-2.669848114736885630e-02,-2.643838205097024871e-02,-2.708044498638467051e-02,-2.860843329321830289e-02,-3.094695593285030910e-02,-3.396573419321977788e-02,-3.748667097834462031e-02,-4.129620081958101235e-02,-4.516244002707885119e-02,-4.885483160446680434e-02,-5.216415975831098506e-02,-5.492124757148363762e-02,-5.701253102646642451e-02,-5.839084489795991206e-02,-5.908055247283974798e-02,-5.917675562477232865e-02,-5.883827044486535790e-02,-5.827402672648978460e-02,-5.772333026244346604e-02,-5.743210368879012734e-02,-5.762874424088740982e-02,-5.850315258377329630e-02,-6.019085431630742666e-02,-6.276249400901035003e-02,-6.621838366385165986e-02,-7.048794383509635053e-02,-7.543410368658830245e-02,-8.086271625528680673e-02,-8.653672587436202213e-02,-9.219445747528817736e-02,-9.757105232649224136e-02,-1.024212035299958967e-01,-1.065404359584945504e-01,-1.097824573587417446e-01,-1.120710243634298608e-01,-1.134055035673368073e-01,-1.138605270118660251e-01,-1.135812377618215102e-01,-1.127749560563288261e-01,-1.116984770320593456e-01,-1.106395745301934491e-01,-1.098920332283956636e-01,-1.097253901215219513e-01,-1.103529564549244057e-01,-1.119033312853089795e-01,-1.144005164854854234e-01,-1.177559314795591922e-01,-1.217729385813969278e-01,-1.261615117132367236e-01,-1.305576433040021578e-01,-1.345407716962995770e-01,-1.376455191926154731e-01,-1.393702973150605096e-01,-1.391894811306362556e-01,-1.365745210448556790e-01,-1.310251744223322745e-01,-1.221085718586832902e-01,-1.095014126479104399e-01,-9.302917568311362684e-02,-7.269671925991905148e-02,-4.870698417937787544e-02,-2.146798465690041152e-02,8.408687179575326590e-03,4.011463391770877379e-02,7.265692050658506540e-02,1.048796541061758764e-01,1.355003305070295594e-01,1.631669672554840467e-01,1.865410560810845664e-01,2.044061873221161285e-01,2.157930686141068533e-01,0.000000000000000000e+00,0.000000000000000000e+00,0.000000000000000000e+00,0.000000000000000000e+00,0.000000000000000000e+00,0.000000000000000000e+00,0.000000000000000000e+00,0.000000000000000000e+00,0.000000000000000000e+00,0.000000000000000000e+00,0.000000000000000000e+00,0.000000000000000000e+00,0.000000000000000000e+00,0.000000000000000000e+00,0.000000000000000000e+00,0.000000000000000000e+00,0.000000000000000000e+00,0.000000000000000000e+00,0.000000000000000000e+00,0.000000000000000000e+00,0.000000000000000000e+00,0.000000000000000000e+00,0.000000000000000000e+00,0.000000000000000000e+00,0.000000000000000000e+00,0.000000000000000000e+00,0.000000000000000000e+00,0.000000000000000000e+00,0.000000000000000000e+00,0.000000000000000000e+00,0.000000000000000000e+00,0.000000000000000000e+00,0.000000000000000000e+00,0.000000000000000000e+00,0.000000000000000000e+00,0.000000000000000000e+00,0.000000000000000000e+00,0.000000000000000000e+00,0.000000000000000000e+00,0.000000000000000000e+00,0.000000000000000000e+00,0.000000000000000000e+00,0.000000000000000000e+00,0.000000000000000000e+00,0.000000000000000000e+00,0.000000000000000000e+00,0.000000000000000000e+00,0.000000000000000000e+00,0.000000000000000000e+00,0.000000000000000000e+00,0.000000000000000000e+00,0.000000000000000000e+00,0.000000000000000000e+00,0.000000000000000000e+00,0.000000000000000000e+00,0.000000000000000000e+00,0.000000000000000000e+00,0.000000000000000000e+00,0.000000000000000000e+00,0.000000000000000000e+00,0.000000000000000000e+00,0.000000000000000000e+00,0.000000000000000000e+00,0.000000000000000000e+00,0.000000000000000000e+00,0.000000000000000000e+00,0.000000000000000000e+00,0.000000000000000000e+00,0.000000000000000000e+00,0.000000000000000000e+00,0.000000000000000000e+00,0.000000000000000000e+00,0.000000000000000000e+00,0.000000000000000000e+00,0.000000000000000000e+00,0.000000000000000000e+00,0.000000000000000000e+00,0.000000000000000000e+00,0.000000000000000000e+00,0.000000000000000000e+00,0.000000000000000000e+00,0.000000000000000000e+00,0.000000000000000000e+00,0.000000000000000000e+00,0.000000000000000000e+00,0.000000000000000000e+00,0.000000000000000000e+00,0.000000000000000000e+00,0.000000000000000000e+00,0.000000000000000000e+00,0.000000000000000000e+00,0.000000000000000000e+00,0.000000000000000000e+00,0.000000000000000000e+00,0.000000000000000000e+00,0.000000000000000000e+00,0.000000000000000000e+00,0.000000000000000000e+00,0.000000000000000000e+00,0.000000000000000000e+00,0.000000000000000000e+00,0.000000000000000000e+00,0.000000000000000000e+00,0.000000000000000000e+00,0.000000000000000000e+00,0.000000000000000000e+00,0.000000000000000000e+00,0.000000000000000000e+00,0.000000000000000000e+00,0.000000000000000000e+00,0.000000000000000000e+00,0.000000000000000000e+00,0.000000000000000000e+00,0.000000000000000000e+00,0.000000000000000000e+00,0.000000000000000000e+00,0.000000000000000000e+00,0.000000000000000000e+00,0.000000000000000000e+00,0.000000000000000000e+00,0.000000000000000000e+00,0.000000000000000000e+00,0.000000000000000000e+00,0.000000000000000000e+00,0.000000000000000000e+00,0.000000000000000000e+00,0.000000000000000000e+00,0.000000000000000000e+00,0.000000000000000000e+00,0.000000000000000000e+00,0.000000000000000000e+00,0.000000000000000000e+00,0.000000000000000000e+00,0.000000000000000000e+00,0.000000000000000000e+00,0.000000000000000000e+00,0.000000000000000000e+00,0.000000000000000000e+00,0.000000000000000000e+00,0.000000000000000000e+00,0.000000000000000000e+00,0.000000000000000000e+00,0.000000000000000000e+00,0.000000000000000000e+00,0.000000000000000000e+00,0.000000000000000000e+00,0.000000000000000000e+00,0.000000000000000000e+00,0.000000000000000000e+00,0.000000000000000000e+00,0.000000000000000000e+00,0.000000000000000000e+00,0.000000000000000000e+00,0.000000000000000000e+00,0.000000000000000000e+00,0.000000000000000000e+00,0.000000000000000000e+00,0.000000000000000000e+00,0.000000000000000000e+00,0.000000000000000000e+00,0.000000000000000000e+00,0.000000000000000000e+00,0.000000000000000000e+00,0.000000000000000000e+00
2.201030279865635875e-01,2.172075575719733254e-01,2.075013674753032333e-01,1.918919325688295263e-01,1.717209310239013742e-01,1.486276472545787208e-01,1.243746234019136171e-01,1.006613709702754988e-01,7.895490784592108791e-02,6.036344720606628966e-02,4.556919788540590710e-02,3.482212311231972640e-02,2.798507999361208101e-02,2.461455068926405101e-02,2.405963110102368047e-02,2.556429945828034289e-02,2.836266905332717261e-02,3.176079707658360785e-02,3.519966960528495697e-02,3.829378261628050423e-02,4.084136833358842367e-02,4.280644124718115118e-02,4.427772397843688507e-02,4.541368289220432813e-02,4.638537548012775652e-02,4.732855212617013280e-02,4.831344849887105053e-02,4.933599697803138506e-02,5.032848012161143803e-02,5.118196386665368330e-02,5.177045502904870089e-02,5.197058014459177144e-02,5.167757671120441071e-02,5.082088382093016138e-02,4.937837530559764654e-02,4.738378077823113960e-02,4.492284005458675733e-02,4.211872569602650995e-02,3.911171972716966094e-02,3.603906827685109115e-02,3.301847718526464831e-02,3.013611253739276533e-02,2.743958585537564776e-02,2.493665467140279007e-02,2.259935664337570094e-02,2.037215803469711456e-02,1.818268467329665211e-02,1.595368956527350862e-02,1.361491536809300226e-02,1.111430763069604782e-02,8.427820179195874215e-03,5.564884440799213947e-03,2.566638991557209596e-03,-5.019532111286276795e-04,-3.561942302481828446e-03,-6.529195765398076307e-03,-9.321672234570022725e-03,-1.186574859011583875e-02,-1.410211776325076029e-02,-1.599100078814032558e-02,-1.751536309443427197e-02,-1.868098100012814330e-02,-1.951363063801153652e-02,-2.005430059731863612e-02,-2.035297696498412218e-02,-2.046210569491541120e-02,-2.043186712353501147e-02,-2.030871329919986534e-02,-2.013656966497410009e-02,-1.995891283806146277e-02,-1.982024942632543488e-02,-1.976633860864894857e-02,-1.984283062395774885e-02,-2.009174347120777290e-02,-2.054521145037989036e-02,-2.121679648182661290e-02,-2.209233868396355202e-02,-2.312437760370822382e-02,-2.423459515600338496e-02,-2.532564833347997896e-02,-2.629921489667223777e-02,-2.707501418426665543e-02,-2.760641667100586019e-02,-2.788954261265997117e-02,-2.796377409515136969e-02,-2.790342689526195685e-02,-2.780249028867489217e-02,-2.775567148226874836e-02,-2.783998734179627191e-02,-2.810191406180535117e-02,-2.855364982077315122e-02,-2.917806482399694368e-02,-2.993842194959290756e-02,-3.078811838665126629e-02,-3.167709615925529826e-02,-3.255449498158369259e-02,-3.337013530694755287e-02,-3.407752237584404237e-02,-3.463806576287527250e-02,-3.502433435031632181e-02,-3.522150771137882996e-02,-3.522774139009362399e-02,-3.505361959579001568e-02,-3.471980520392643071e-02,-3.425233946356406184e-02,-3.367650406821430520e-02,-3.301128807340516363e-02,-3.226620779405604822e-02,-3.144088931085052552e-02,-3.052688420548077888e-02,-2.951101918890296563e-02,-2.837951922725766990e-02,-2.712229671651531643e-02,-2.573733212284460767e-02,-2.423511957841925288e-02,-2.264242795967117208e-02,-2.100422976312289400e-02,-1.938275367785562489e-02,-1.785205532187882430e-02,-1.648638401545490448e-02,-1.534415050007183895e-02,-1.445489864370636500e-02,-1.381687936057458300e-02,-1.340530172750094978e-02,-1.318455167239969070e-02,-1.311841765880863465e-02,-1.317640526208624721e-02,-1.333596285012896877e-02,-1.358114227677597284e-02,-1.389951333981015273e-02,-1.427903928304245958e-02,-1.470510111135388438e-02,-1.515773443574231806e-02,-1.561031123412102116e-02,-1.603084937955480405e-02,-1.638581672328526598e-02,-1.664530576050848518e-02,-1.678811107054579282e-02,-1.680540523080844770e-02,-1.670265686907844091e-02,-1.650062679838684362e-02,-1.623612969189826977e-02,-1.596162482521886611e-02,-1.574189552201364292e-02,-1.564714409942942475e-02,-1.574302936343661974e-02,-1.607864813824502054e-02,-1.667434705107480319e-02,-1.751274282656843997e-02,-1.853673380240068030e-02,-1.965612717852453090e-02,-2.076073971144851496e-02,-2.173548061696293360e-02,-2.247368852032359185e-02,-2.288716213822920148e-02,-2.291243609687116170e-02,-2.251285618196960728e-02,-2.167653569164362456e-02,-2.041172998269994918e-02,-1.874199749920624561e-02,-1.670316040545937950e-02,-1.434392345638008277e-02,-1.173167172923771442e-02,-8.961997745100884830e-03,-6.165704043345187832e-03,-3.505729846586774605e-03,-1.161714144162014680e-03,6.929042328476046333e-04,1.913900271463941450e-03,2.404661913311015135e-03,2.128674045738424871e-03,1.116286257664078413e-03,-5.344922614070785104e-04,-2.664468112763915091e-03,-5.068122886027590264e-03,-7.516146530361294403e-03,-9.782871391716492851e-03,-1.167403661453882309e-02,-1.304878895951128333e-02,-1.383088950959628603e-02,-1.400871614544006889e-02,-1.362794798661720423e-02,-1.278126287426604481e-02,-1.159699123660847854e-02,-1.022649992757345555e-02,-8.829943818834059405e-03,-7.561271838180140363e-03,-6.554187600488732904e-03,-5.910700457855646260e-03,-5.693542331259107171e-03,-5.922652845023453592e-03,-6.574099165660410651e-03,-7.579653276197050905e-03,-8.828385895164186925e-03,-1.017454137389711688e-02,-1.145418665159970290e-02,-1.250802719849920981e-02,-1.320412995873240097e-02,-1.345421161012277933e-02,-1.321999150168350241e-02,-1.251019966914337575e-02,-1.137176945255185569e-02,-9.879159728988777533e-03,-8.124349984173081032e-03,-6.208159826936711367e-03,-4.232202905191743622e-03,-2.290820633872046701e-03,-4.637400603378044432e-04,1.188388513726056995e-03,2.623650120016525738e-03,3.814193135273065329e-03,4.741046217025497896e-03,5.393624224810758191e-03,5.776130273448610089e-03,5.917728167102163407e-03,5.880852729579933574e-03,5.763504609330520959e-03,5.693306232547990821e-03,5.812564958520949343e-03,6.256636991657842095e-03,7.130889616326901471e-03,8.491133857293093820e-03,1.032997984465310916e-02,1.257060044807422131e-02,1.506968930462198632e-02,1.763078733935240575e-02,2.002690309721442269e-02,2.202872293682192617e-02,2.343369530727352351e-02,2.409211952217267874e-02,2.392718149595573357e-02,2.294605927107198212e-02,2.124029956997198001e-02,1.897593739984823613e-02,1.637586089380238183e-02,1.369749743629712462e-02,1.120763873059967344e-02,9.154927057603673771e-03,7.741903474095877639e-03,7.101145000847604652e-03,7.279857720303985549e-03,8.234640188724369134e-03,9.836400979537966716e-03,1.188510572588191185e-02,1.413345451113706339e-02,1.631717380337369475e-02,1.818757747435722008e-02,1.954033792439282408e-02,2.023494396325319078e-02,2.020250198176252315e-02,1.944303980016192507e-02,1.801535586424834329e-02,1.602286651038164686e-02,1.359843327039795928e-02,1.089005686182401532e-02,8.048150037225518250e-03,5.214402907650949985e-03,2.511984427231819892e-03,3.692058066280666138e-05,-2.149009921242863146e-03,-4.023164731931507671e-03,-5.603916388184778177e-03,-6.948212792492506999e-03,-8.143128506256433821e-03,-9.290961123625221529e-03,-1.048999270204767700e-02,-1.181464492295069592e-02,-1.329848990620786583e-02,-1.492328968286501037e-02,-1.661756796081770987e-02,-1.826672613413466567e-02,-1.973280333222070249e-02,-2.087869386884057959e-02,-2.159126834840490242e-02,-2.179971180499922639e-02,-2.148693642980524510e-02,-2.069163629061503834e-02,-1.949902526010162396e-02,-1.802238515546420242e-02,-1.638208545015456055e-02,-1.468889000642692975e-02,-1.303493619399094354e-02,-1.149225405151746947e-02,-1.011648525592024998e-02,-8.952630753132647876e-03,-8.039983438749736741e-03,-7.414508432958735046e-03,-7.108333480691539190e-03,-7.146836764934581983e-03,-7.543851124456284543e-03,-8.295716763174859967e-03,-9.375641563481423510e-03,-1.073016221882796585e-02,-1.227916240334340874e-02,-1.392048629334100007e-02,-1.553951060424086511e-02,-1.702248636207019661e-02,-1.827076678536112067e-02,-1.921273725451586381e-02,-1.981127149381318314e-02,-2.006570356845635214e-02,-2.000864392065359459e-02,-1.969912943291014795e-02,-1.921341891141521360e-02,-1.863455570421689023e-02,-1.804326138175580546e-02,-1.751333350933612781e-02,-1.711202822641253937e-02,-1.690218058283469299e-02,-1.694154523425456943e-02,-1.727651207422218824e-02,-1.793032402409163589e-02,-1.888902826652149106e-02,-2.009111252876470688e-02,-2.142718959974643234e-02,-2.275212679849755379e-02,-2.390597364399922944e-02,-2.473727874586083633e-02,-2.512445312783315177e-02,-2.499380246856924490e-02,-2.433303723634177781e-02,-2.319733385362843930e-02,-2.170445805543533627e-02,-2.001758498916031068e-02,-1.831857598132720366e-02,-1.677842879464123971e-02,-1.553262138647636820e-02,-1.466608928704297467e-02,-1.420813336528176790e-02,-1.413519526426059401e-02,-1.437941684043718069e-02,-1.484104704671323355e-02,-1.540275312951143623e-02,-1.594449517249823395e-02,-1.635763589963583689e-02,-1.655572640549658747e-02,-1.647934989871714662e-02,-1.609505037657998558e-02,-1.539139191511748085e-02,-1.437564375331421181e-02,-1.307256829802749820e-02,-1.152493498666342688e-02,-9.794999506059014552e-03,-7.965803025004242199e-03,-6.140453216795343540e-03,-4.438374335199072630e-03,-2.989395895550338907e-03,-1.926703272955384520e-03,-1.377822335995442307e-03,-1.452166172225497496e-03,-2.226052006304212426e-03,-3.728657925253901512e-03,-5.931898501600331268e-03,-8.745060701721077759e-03,-1.201471613180048539e-02,-1.553162593511098893e-02,-1.904580318895979923e-02,-2.228839445886012655e-02,-2.499740518000724554e-02,-2.694423323548588226e-02,-2.795852633332380002e-02,-2.794953319154626359e-02,-2.692174476664974114e-02,-2.498105958278536848e-02,-2.232742783018541732e-02,-1.923274015169676096e-02,-1.600738554239716782e-02,-1.296252820943731912e-02,-1.037561725982253172e-02,-8.464043425566388640e-03,-7.368149381088281644e-03,-7.142785906338944453e-03,-7.757382178726702875e-03,-9.105127472822318810e-03,-1.101976272054611128e-02,-1.329616716721880414e-02,-1.571141007667918241e-02,-1.804471578496246592e-02,-2.009528392919466069e-02,-2.169685208253746556e-02,-2.272912729824884404e-02,-2.312722641653588637e-02,-2.288813732347206795e-02,-2.206987010564519930e-02,-2.077997925265384974e-02,-1.915639987390416535e-02,-1.734875631676875002e-02,-1.550625347036505008e-02,-1.377093553101230855e-02,-1.227090408990397057e-02,-1.111079634919871599e-02,-1.036150536951815221e-02,-1.005270183406655263e-02,-1.017039648452907653e-02,-1.065993959340399977e-02,-1.143369597044636282e-02,-1.238166236515127194e-02,-1.338238246496461711e-02,-1.431222770090985127e-02,-1.505395910173507740e-02,-1.550750553767321800e-02,-1.560376897105797932e-02,-1.531762126619996660e-02,-1.467437630182556567e-02,-1.374687554655788443e-02,-1.264449091578530131e-02,-1.149713094034890415e-02,-1.043690529817098249e-02,-9.579786291740546508e-03,-9.010062064840437812e-03,-8.770038248450103338e-03,-8.855677273894468904e-03,-9.217537249227374455e-03,-9.766733908314204765e-03,-1.038615765307218837e-02,-1.094616470220051777e-02,-1.132210415799550680e-02,-1.141009534864106424e-02,-1.113819903866145218e-02,-1.047184090371297040e-02,-9.413716329257238585e-03,-7.999146139458047922e-03,-6.288569721577584939e-03,-4.359041327461360242e-03,-2.295797368348903057e-03,-1.844771271912231596e-04,1.895077457017619498e-03,3.872556699808503335e-03,5.688543695172175799e-03,7.294702602696348688e-03,8.654292866872827922e-03,9.743973891110504354e-03,1.055705716833709416e-02,1.110748366783619739e-02,1.143324342350723367e-02,1.159811738182545474e-02,1.169093300652528783e-02,1.182166328053500803e-02,1.211419039066079402e-02,1.269610747375517906e-02,1.368583879599918722e-02,1.517741925012980504e-02,1.722491477961073797e-02,1.983069389666925961e-02,2.294134824901661318e-02,2.645162538001889427e-02,3.021417533630438995e-02,3.405341177181762935e-02,3.778302044816105043e-02,4.122619362632513190e-02,4.423608519338204093e-02,4.671309562514748548e-02,4.861591234584180382e-02,4.996406144097676610e-02,5.083129975969006425e-02,5.133188148258407274e-02,5.160395045745619358e-02,5.179437266698722064e-02,5.204760227547476636e-02,5.249837905205938238e-02,5.326526607103896499e-02,5.444189161111522707e-02,5.608594073120498624e-02,5.820896258425672931e-02,6.077007015562409242e-02,6.367491985547503452e-02,6.678046946001439665e-02,6.990596495256841403e-02,7.284986859917820523e-02,7.541116004824856278e-02,7.741285715767216857e-02,7.872531427429875495e-02,7.928614641693165765e-02,7.911327485211257227e-02,7.830801619046035000e-02,7.704567989590956067e-02,7.555249523977104753e-02,7.407156902313209723e-02,7.282528836785438775e-02,7.198262825194121084e-02,7.163640696232505267e-02,7.179159986115901670e-02,7.236466282782220982e-02,7.319492065344861131e-02,7.406934624825191327e-02,7.475904086852061536e-02,7.506045366004757136e-02,7.483113060458969346e-02,7.401168351503212284e-02,7.263075356155077045e-02,7.079399875281155996e-02,6.866074951929863890e-02,6.641379533930427681e-02,6.422805532522876670e-02,6.224260971460795350e-02,6.053947853081299846e-02,5.913202294184194407e-02,5.796487801442173210e-02,5.692565285962735561e-02,5.586646792356435298e-02,5.463079135410128795e-02,5.307891243299394518e-02,5.110594459592876504e-02,4.865031008579363825e-02,4.569520338357193484e-02,4.226667867062783995e-02,3.842975018117392172e-02,3.428151605090657555e-02,2.994017067547967773e-02,2.553041089542102890e-02,2.116738163646336018e-02,1.694173004507180252e-02,1.290791014612653435e-02,9.078029593261909697e-03,5.424241729739047620e-03,1.891438281089312910e-03,-1.582706418118804683e-03,-5.047949160625906165e-03,-8.528757215049411963e-03,-1.201993606285333034e-02,-1.548827264484539147e-02,-1.887854802697862266e-02,-2.212305501435667468e-02,-2.515266695588482329e-02,-2.790708545039791155e-02,-3.034297000313971107e-02,-3.243952109359717062e-02,-3.420102394261991668e-02,-3.565558348624033036e-02,-3.685004494203149988e-02,-3.784279686362823636e-02,-3.869646630868030929e-02,-3.947082960746033792e-02,-4.021547834016017675e-02,-4.096325837565794464e-02,-4.172674175056972912e-02,-4.249908735280834293e-02,-4.325877607883244630e-02,-4.397671253529256141e-02,-4.462438511584745915e-02,-4.518213145325460089e-02,-4.564622683256077534e-02,-4.603294712254443061e-02,-4.637799792525051923e-02,-4.673104913155690793e-02,-4.714687160285352396e-02,-4.767595078792830066e-02,-4.835778549743744575e-02,-4.921879228396119216e-02,-5.027435184530562595e-02,-5.153221086568889747e-02,-5.299304096941567788e-02,-5.464491712530717554e-02,-5.645269439614227641e-02,-5.834818229227645148e-02,-6.022822346775124486e-02,-6.196400237689996676e-02,-6.341942458408039718e-02,-6.447297412652300275e-02,-6.503698221653732292e-02,-6.506987756769151698e-02,-6.457973708147635161e-02,-6.362028011621378987e-02,-6.228216136002435316e-02,-6.068229119881882183e-02,-5.895280585682785568e-02,-5.723068800695054609e-02,-5.564898969684754781e-02,-5.433028734844309177e-02,-5.338212874444451389e-02,-5.289342593452278640e-02,-5.293067012918821479e-02,-5.353388262126283076e-02,-5.471413044659016039e-02,-5.645509332949141118e-02,-5.871902711114592582e-02,-6.145505501472359883e-02,-6.460775477295148395e-02,-6.812511189109640708e-02,-7.196486101458711426e-02,-7.609762052079577233e-02,-8.050555279349366766e-02,-8.517619552618423129e-02,-9.009163914114362570e-02,-9.521429709818941822e-02,-1.004730234447538811e-01,-1.057549964891618260e-01,-1.109070047781824248e-01,-1.157459865922688957e-01,-1.200760383926385844e-01,-1.237084730006273448e-01,-1.264819117530369963e-01,-1.282797030395199656e-01,-1.290421181946077578e-01,-1.287719882511963176e-01,-1.275348324852731419e-01,-1.254559450574642965e-01,-1.227153329509654001e-01,-1.195380689241720001e-01,-1.161767024843458479e-01,-1.128860744196173993e-01,-1.098957922032587353e-01,-1.073865031290126559e-01,-1.054726107255826995e-01,-1.041904112199846383e-01,-1.034894026967274061e-01,-1.032250124834788868e-01,-1.031523438149856420e-01,-1.029226493743721493e-01,-1.020860977161880678e-01,-1.001052290735073153e-01,-9.638376475636423191e-02,-9.031382417482045066e-02,-8.133870629079634207e-02,-6.902086430048492982e-02,-5.310218684311124315e-02,-3.354826729639751037e-02,-1.057514669336157703e-02,1.533959295246127737e-02,4.346033627050621684e-02,7.281239255616951678e-02,1.022182277443829251e-01,1.303533314801309240e-01,1.558235475475951148e-01,1.772622165240099745e-01,1.934401369057886511e-01,2.033777465564178266e-01,0.000000000000000000e+00,0.000000000000000000e+00,0.000000000000000000e+00,0.000000000000000000e+00,0.000000000000000000e+00,0.000000000000000000e+00,0.000000000000000000e+00,0.000000000000000000e+00,0.000000000000000000e+00,0.000000000000000000e+00,0.000000000000000000e+00,0.000000000000000000e+00,0.000000000000000000e+00,0.000000000000000000e+00,0.000000000000000000e+00,0.000000000000000000e+00,0.000000000000000000e+00,0.000000000000000000e+00,0.000000000000000000e+00,0.000000000000000000e+00,0.000000000000000000e+00,0.000000000000000000e+00,0.000000000000000000e+00,0.000000000000000000e+00,0.000000000000000000e+00,0.000000000000000000e+00,0.000000000000000000e+00,0.000000000000000000e+00,0.000000000000000000e+00,0.000000000000000000e+00,0.000000000000000000e+00,0.000000000000000000e+00,0.000000000000000000e+00,0.000000000000000000e+00,0.000000000000000000e+00,0.000000000000000000e+00,0.000000000000000000e+00,0.000000000000000000e+00,0.000000000000000000e+00,0.000000000000000000e+00,0.000000000000000000e+00,0.000000000000000000e+00,0.000000000000000000e+00,0.000000000000000000e+00,0.000000000000000000e+00,0.000000000000000000e+00,0.000000000000000000e+00,0.000000000000000000e+00,0.000000000000000000e+00,0.000000000000000000e+00,0.000000000000000000e+00,0.000000000000000000e+00,0.000000000000000000e+00,0.000000000000000000e+00,0.000000000000000000e+00,0.000000000000000000e+00,0.000000000000000000e+00,0.000000000000000000e+00,0.000000000000000000e+00,0.000000000000000000e+00,0.000000000000000000e+00,0.000000000000000000e+00,0.000000000000000000e+00,0.000000000000000000e+00,0.000000000000000000e+00,0.000000000000000000e+00,0.000000000000000000e+00,0.000000000000000000e+00,0.000000000000000000e+00,0.000000000000000000e+00,0.000000000000000000e+00,0.000000000000000000e+00,0.000000000000000000e+00,0.000000000000000000e+00,0.000000000000000000e+00,0.000000000000000000e+00,0.000000000000000000e+00,0.000000000000000000e+00,0.000000000000000000e+00,0.000000000000000000e+00,0.000000000000000000e+00,0.000000000000000000e+00,0.000000000000000000e+00,0.000000000000000000e+00,0.000000000000000000e+00,0.000000000000000000e+00,0.000000000000000000e+00,0.000000000000000000e+00,0.000000000000000000e+00,0.000000000000000000e+00,0.000000000000000000e+00,0.000000000000000000e+00,0.000000000000000000e+00,0.000000000000000000e+00,0.000000000000000000e+00,0.000000000000000000e+00,0.000000000000000000e+00,0.000000000000000000e+00,0.000000000000000000e+00,0.000000000000000000e+00,0.000000000000000000e+00,0.000000000000000000e+00,0.000000000000000000e+00,0.000000000000000000e+00,0.000000000000000000e+00,0.000000000000000000e+00,0.000000000000000000e+00,0.000000000000000000e+00,0.000000000000000000e+00,0.000000000000000000e+00,0.000000000000000000e+00,0.000000000000000000e+00,0.000000000000000000e+00,0.000000000000000000e+00,0.000000000000000000e+00,0.000000000000000000e+00,0.000000000000000000e+00,0.000000000000000000e+00,0.000000000000000000e+00,0.000000000000000000e+00,0.000000000000000000e+00,0.000000000000000000e+00,0.000000000000000000e+00,0.000000000000000000e+00,0.000000000000000000e+00,0.000000000000000000e+00,0.000000000000000000e+00,0.000000000000000000e+00,0.000000000000000000e+00,0.000000000000000000e+00,0.000000000000000000e+00,0.000000000000000000e+00,0.000000000000000000e+00,0.000000000000000000e+00,0.000000000000000000e+00,0.000000000000000000e+00,0.000000000000000000e+00,0.000000000000000000e+00,0.000000000000000000e+00,0.000000000000000000e+00,0.000000000000000000e+00,0.000000000000000000e+00,0.000000000000000000e+00,0.000000000000000000e+00,0.000000000000000000e+00,0.000000000000000000e+00,0.000000000000000000e+00,0.000000000000000000e+00,0.000000000000000000e+00,0.000000000000000000e+00,0.000000000000000000e+00,0.000000000000000000e+00,0.000000000000000000e+00,0.000000000000000000e+00,0.000000000000000000e+00,0.000000000000000000e+00,0.000000000000000000e+00,0.000000000000000000e+00,0.000000000000000000e+00,0.000000000000000000e+00,0.000000000000000000e+00,0.000000000000000000e+00,0.000000000000000000e+00,0.000000000000000000e+00,0.000000000000000000e+00,0.000000000000000000e+00,0.000000000000000000e+00,0.000000000000000000e+00
2.064483930047526505e-01,2.024621109030887711e-01,1.917186689535559374e-01,1.750171791882896288e-01,1.536106724911536769e-01,1.291011635434082538e-01,1.032837831171547066e-01,7.796275239161654103e-02,5.477022890386273879e-02,3.501695434567098086e-02,1.959308172552669605e-02,8.925355177879904650e-03,2.988194480816630007e-03,1.361058482592657302e-03,3.321003245213097546e-03,7.957323384713730144e-03,1.429384377558601434e-02,2.140328193926397185e-02,2.849907099997811555e-02,3.499473835121847537e-02,4.052730834888532141e-02,4.494624653060820541e-02,4.827331642048368621e-02,5.064299900743159805e-02,5.223696177681958625e-02,5.322666908116020779e-02,5.373471815623533793e-02,5.381976233292087158e-02,5.348376320986354682e-02,5.269451489796372901e-02,5.141295074332208337e-02,4.961628090366869415e-02,4.731295786087005156e-02,4.454922262024442470e-02,4.140835459168714511e-02,3.800443406682913611e-02,3.447203148307504544e-02,3.095158065862632646e-02,2.757028689291133802e-02,2.442135020971050383e-02,2.154680517563180298e-02,1.892915098938174889e-02,1.649506784374838581e-02,1.413191791743767349e-02,1.171427472903298350e-02,9.133774909895009050e-03,6.323621239540150492e-03,3.271603280922732657e-03,2.109228210710065044e-05,-3.336434134270705766e-03,-6.673567614328577632e-03,-9.841932760091839580e-03,-1.268920062547736205e-02,-1.507723427672889339e-02,-1.689971477405952105e-02,-1.809689541340911076e-02,-1.866464543606467102e-02,-1.865506648874872692e-02,-1.816736649063453030e-02,-1.733078855413082778e-02,-1.628493179214460934e-02,-1.516337738314690355e-02,-1.408299014039340706e-02,-1.313744416353754448e-02,-1.239310129042748426e-02,-1.188742937090950247e-02,-1.163150380998790451e-02,-1.161692463850126644e-02,-1.182456841581725447e-02,-1.223080292385810702e-02,-1.280844712387223250e-02,-1.352408786190880709e-02,-1.433615565560211573e-02,-1.519660111489878722e-02,-1.605580708414477628e-02,-1.686906654442919470e-02,-1.760289561600885885e-02,-1.823920179541644454e-02,-1.877586094965748992e-02,-1.922400181112084508e-02,-1.960367449578987592e-02,-1.993955545682542241e-02,-2.025743171516200883e-02,-2.058123515254943470e-02,-2.092992304754988722e-02,-2.131383987236948677e-02,-2.173106170792827793e-02,-2.216492537236085247e-02,-2.258415543638406589e-02,-2.294654091470772067e-02,-2.320573991460073496e-02,-2.331931064098628076e-02,-2.325604770403021451e-02,-2.300204418271380863e-02,-2.256543746750389046e-02,-2.197863892148311724e-02,-2.129631006848555635e-02,-2.058910174495651862e-02,-1.993501506260070277e-02,-1.941014006873415312e-02,-1.907984493822407687e-02,-1.899148310392817854e-02,-1.916942105183743958e-02,-1.961203437006917363e-02,-2.028966092907329849e-02,-2.114397665584792294e-02,-2.209133161762916533e-02,-2.303180683569642367e-02,-2.386238754492837899e-02,-2.449040043166690953e-02,-2.484386440953579786e-02,-2.487721083124814700e-02,-2.457271937854730443e-02,-2.393990661903205169e-02,-2.301573704144099786e-02,-2.186613349233770820e-02,-2.058560799227137153e-02,-1.929097196875838305e-02,-1.810790937511310567e-02,-1.715321921997941396e-02,-1.651807602341538381e-02,-1.625692659615004740e-02,-1.638315547714417827e-02,-1.686984639320473003e-02,-1.765412327204796475e-02,-1.864463825437752756e-02,-1.973107113746213129e-02,-2.079331571516685948e-02,-2.170923010749252827e-02,-2.236227418376351278e-02,-2.265057100365802309e-02,-2.249696696890502237e-02,-2.185834358155360271e-02,-2.073263579855463140e-02,-1.916243830563218314e-02,-1.723392097886628296e-02,-1.506982315283267142e-02,-1.281699506792908019e-02,-1.063181179120608645e-02,-8.667414253661603896e-03,-7.063340175931638598e-03,-5.934547834537276176e-03,-5.358041675852472097e-03,-5.360250731495492214e-03,-5.911315094489066196e-03,-6.930220050861550171e-03,-8.299515705514038180e-03,-9.884573513922611729e-03,-1.155169207834343646e-02,-1.318076124622820887e-02,-1.467101425697893424e-02,-1.594229651771001191e-02,-1.693671793981784204e-02,-1.762366914650294672e-02,-1.800594388077708663e-02,-1.812114102298908666e-02,-1.803417862880784747e-02,-1.782168340806955173e-02,-1.755327831170204467e-02,-1.727599093369956013e-02,-1.700541331457452662e-02,-1.672339410775035284e-02,-1.638082516859708931e-02,-1.590506245608558356e-02,-1.521164742943897571e-02,-1.421885692091724544e-02,-1.286253772252924504e-02,-1.110853496396198466e-02,-8.960641106060778308e-03,-6.462606959606264322e-03,-3.694183739075525361e-03,-7.638377367052926479e-04,2.198269322148066560e-03,5.045825107893940620e-03,7.622032572375790800e-03,9.767820165609293614e-03,1.133430968108423142e-02,1.219914464995272910e-02,1.228313338139173753e-02,1.156213214946522592e-02,1.007082348957350111e-02,7.898226069357224335e-03,5.177043875766688431e-03,2.069736880493026551e-03,-1.245882907049926510e-03,-4.589001157210963536e-03,-7.784151264232147885e-03,-1.066539731612113108e-02,-1.307896116235953733e-02,-1.488787113137074979e-02,-1.597974067922391592e-02,-1.627604047436811627e-02,-1.574121816906184912e-02,-1.439083319980067992e-02,-1.229684930684253608e-02,-9.586591549953097161e-03,-6.432474864041652120e-03,-3.032842267013906648e-03,4.119682267252764893e-04,3.722008878108766430e-03,6.752993677505355306e-03,9.402626027485552762e-03,1.161013990182282497e-02,1.335227721217759067e-02,1.463739382931118771e-02,1.549789742829379285e-02,1.598170068463261595e-02,1.614551536039525795e-02,1.605329292392426721e-02,1.577962510488474523e-02,1.541346235415642051e-02,1.505646124885614244e-02,1.481340708875024045e-02,1.477718045338656874e-02,1.501411971133915363e-02,1.555492735524030903e-02,1.639262032295061081e-02,1.748592215543331302e-02,1.876559732978032302e-02,2.014157316688201804e-02,2.150984150161855402e-02,2.276003331175115163e-02,2.378540945768747861e-02,2.449581194117888064e-02,2.483218925877088770e-02,2.477954664536253723e-02,2.437432445494426905e-02,2.370352649467985864e-02,2.289551459282706397e-02,2.210394560919940951e-02,2.148690053420884011e-02,2.118430627247527842e-02,2.129749940838128811e-02,2.187371933140692254e-02,2.289672028497075421e-02,2.428443473219842400e-02,2.589494556669849623e-02,2.754149400497407293e-02,2.901586177212180442e-02,3.011746743945957136e-02,3.068322379970091218e-02,3.061220155937204035e-02,2.988062095195881396e-02,2.854515611007582554e-02,2.673433258435830434e-02,2.462970113354470345e-02,2.244075324875726557e-02,2.037853882104170497e-02,1.863207056549841603e-02,1.734968577424579605e-02,1.662557072362231408e-02,1.649117467718063529e-02,1.691260266914810725e-02,1.779584754610215661e-02,1.899976348982472529e-02,2.035341266627516826e-02,2.167334216072924410e-02,2.277860742296797247e-02,2.350400687820079423e-02,2.371222482275201285e-02,2.330442792753632808e-02,2.222845386889674493e-02,2.048411884216108994e-02,1.812536213066518603e-02,1.525846205937110740e-02,1.203493109702159086e-02,8.638235537708165504e-03,5.265660584763911037e-03,2.108988651070026893e-03,-6.620810453405649807e-04,-2.912423837600724378e-03,-4.551555539515530005e-03,-5.542682586934969541e-03,-5.908815224437477705e-03,-5.731981797079500202e-03,-5.143290168294047116e-03,-4.305291946814280776e-03,-3.390934614229257696e-03,-2.563645762307300430e-03,-1.961224210446513207e-03,-1.684337233558278564e-03,-1.790090130119266747e-03,-2.291508061019356494e-03,-3.162715624059606913e-03,-4.347212041011851505e-03,-5.765805204392514781e-03,-7.322770216516223500e-03,-8.911265417670658287e-03,-1.041948427029729639e-02,-1.173769329422281495e-02,-1.276515465823204777e-02,-1.341630331881919769e-02,-1.362687085771090156e-02,-1.336125140140373251e-02,-1.262155770689618074e-02,-1.145703365518989901e-02,-9.970212632894562277e-03,-8.314372320848591180e-03,-6.677864055695015809e-03,-5.256104706694369848e-03,-4.218747204485797341e-03,-3.682611199316202996e-03,-3.697537181271175893e-03,-4.245483738979967912e-03,-5.248752089329015297e-03,-6.583504386534061274e-03,-8.097121603877238671e-03,-9.628644258602690048e-03,-1.102993807762718027e-02,-1.218397612939112890e-02,-1.301724327115909817e-02,-1.350465586317100425e-02,-1.366695082310472216e-02,-1.356235682915686233e-02,-1.327522537749856353e-02,-1.290316565714764649e-02,-1.254302055999122721e-02,-1.227711088688002682e-02,-1.216321527324069202e-02,-1.223138400873221253e-02,-1.248751066958279227e-02,-1.292041980370077676e-02,-1.350849611929555612e-02,-1.422343084052437971e-02,-1.503052353293767539e-02,-1.588615009488270058e-02,-1.673416462602124455e-02,-1.750398129110065926e-02,-1.811269423214205768e-02,-1.847188253360236565e-02,-1.849791488829775205e-02,-1.812344859657707280e-02,-1.730766595761432797e-02,-1.604362909007206114e-02,-1.436208805120852729e-02,-1.233093953770091934e-02,-1.004930006889176095e-02,-7.636978310295000627e-03,-5.223010014791387885e-03,-2.937190900548415466e-03,-9.050818038200595219e-04,7.572254763183976353e-04,1.953501874353939793e-03,2.624175160644653254e-03,2.763664644941841563e-03,2.428338559060586391e-03,1.729935735911923783e-03,8.185965883550870830e-04,-1.364575399218864813e-04,-9.641435518541746500e-04,-1.507066893610728431e-03,-1.637362843375608995e-03,-1.272789858797139821e-03,-3.899635514704900482e-04,9.693177271231976201e-04,2.701052272426088426e-03,4.651740815043649453e-03,6.639596097940439826e-03,8.480853852780219707e-03,1.001606329218069323e-02,1.113151425528921892e-02,1.177231160804701089e-02,1.194490399961509360e-02,1.170922762708550072e-02,1.116370739008629501e-02,1.042730560617599264e-02,9.621647811681906248e-03,8.855544023115389726e-03,8.213948749834620172e-03,7.752500785087272812e-03,7.497770177113669172e-03,7.452253857544784144e-03,7.601510467009150659e-03,7.919878552802911073e-03,8.372879981722095716e-03,8.917710018854057771e-03,9.504598640065319709e-03,1.008012584642534182e-02,1.059164035667877618e-02,1.099165767814586948e-02,1.124122217353608517e-02,1.131123330941829520e-02,1.118179131874878253e-02,1.084099991541368456e-02,1.028470306530927456e-02,9.517745595839540232e-03,8.556578929325047919e-03,7.432195879910279135e-03,6.191434631969737826e-03,4.894593855105434412e-03,3.608648141831440146e-03,2.397370751184773469e-03,1.311057859227533762e-03,3.789004174366657944e-04,-3.932604375932759449e-04,-1.018336812900481848e-03,-1.518029693354200392e-03,-1.912165942225531063e-03,-2.212477603510424381e-03,-2.422878428984807583e-03,-2.543924806590525632e-03,-2.576676075384541024e-03,-2.522636528994713894e-03,-2.380839054678116681e-03,-2.146344701610583983e-03,-1.813412115318024367e-03,-1.382490966507422163e-03,-8.667122938653054132e-04,-2.934698244363096722e-04,3.001178094208076957e-04,8.753973119566246840e-04,1.400269391349436357e-03,1.854858605121842852e-03,2.234363657770211190e-03,2.549184030960377836e-03,2.822363460423364407e-03,3.085191869583502142e-03,3.372849253999863489e-03,3.721963198800154731e-03,4.170277954403211855e-03,4.756314243885298443e-03,5.516802278527782773e-03,6.482495276328688674e-03,7.675277524295988016e-03,9.108855593096236089e-03,1.079309884756651274e-02,1.273967853335999587e-02,1.496463871845255325e-02,1.748394546082225262e-02,2.030211003251608179e-02,2.339916408067280879e-02,2.672348346350372425e-02,3.019495368887257711e-02,3.371678318989484308e-02,3.719021471647859789e-02,4.052683799938530673e-02,4.365561313758358625e-02,4.652414845406147026e-02,4.909660952110389553e-02,5.135240868138282039e-02,5.328775040820983577e-02,5.491770032343425839e-02,5.627529227439335285e-02,5.740757362452481027e-02,5.837079020128811691e-02,5.922522804019373505e-02,6.002922898801038576e-02,6.083422373037412900e-02,6.168371041190922471e-02,6.261621773556699799e-02,6.366910115720253449e-02,6.487954992418637490e-02,6.628076167953032838e-02,6.789401163685833407e-02,6.972014207408722131e-02,7.173445628032869281e-02,7.388671126695030289e-02,7.610564569814443070e-02,7.830751026018820116e-02,8.040879934352458680e-02,8.234177251953557486e-02,8.406811493920682277e-02,8.558532153998388292e-02,8.692383384564232596e-02,8.813730949127976388e-02,8.928962718171630508e-02,9.044090724639795853e-02,9.163420969597725618e-02,9.288498954826016063e-02,9.417521924840842329e-02,9.545338377214003522e-02,9.664056383518783433e-02,9.764110139219460416e-02,9.835506693508418163e-02,9.869063429952716626e-02,9.857658283966976021e-02,9.797518378691910668e-02,9.689252196922538973e-02,9.538126691528112100e-02,9.353398550097337394e-02,9.146972936153832667e-02,8.931789334788918511e-02,8.720211342427548751e-02,8.522614215653309677e-02,8.346378620538005833e-02,8.195497964746739639e-02,8.070859916792866295e-02,7.971019877674077880e-02,7.893149569531091037e-02,7.833905544596592163e-02,7.790136924207319291e-02,7.759464436534622978e-02,7.740652964638342071e-02,7.733494278927960375e-02,7.737974278508664983e-02,7.752872282928915948e-02,7.774279576697633309e-02,7.794594482207797825e-02,7.802409504770545234e-02,7.783430591007113597e-02,7.722229247050026169e-02,7.604403160338989165e-02,7.418692347733486792e-02,7.158655212527523237e-02,6.823612014256290326e-02,6.418757278099569696e-02,5.954545164240414301e-02,5.445544010072285446e-02,4.908962734822085172e-02,4.363049901015402660e-02,3.825554454967257378e-02,3.312384600141715651e-02,2.836489183689037963e-02,2.406856284075488059e-02,2.027603447009641152e-02,1.697514318973382050e-02,1.410571787345212859e-02,1.157592817803304586e-02,9.283684867374703692e-03,7.134568091429038805e-03,5.051116800297831937e-03,2.974005565973389734e-03,8.594972765252495038e-04,-1.322476870349271550e-03,-3.588014516656619877e-03,-5.937691324385890694e-03,-8.355674709211086126e-03,-1.081120472033693554e-02,-1.326301165961120410e-02,-1.566532506311668627e-02,-1.797313075334416518e-02,-2.014531032853665235e-02,-2.214554015442138021e-02,-2.394104979785786555e-02,-2.549984291965164476e-02,-2.678840552800119956e-02,-2.777242755361154433e-02,-2.842138747950510858e-02,-2.871558789913701559e-02,-2.865368398118119456e-02,-2.825981400189322285e-02,-2.758988380163409151e-02,-2.673508322478492308e-02,-2.581910650895339818e-02,-2.498691382166677230e-02,-2.438693939704144470e-02,-2.415137098245377645e-02,-2.437856524176072390e-02,-2.512010870899551371e-02,-2.637446108075509540e-02,-2.808890757744512967e-02,-3.017049561025458848e-02,-3.250460295659086257e-02,-3.497728397838174852e-02,-3.749543955394508965e-02,-3.999919111583608022e-02,-4.246463860008404395e-02,-4.489925373429505540e-02,-4.733283779999002822e-02,-4.980550686335971644e-02,-5.235365132579809094e-02,-5.499537656873305924e-02,-5.771741447531693325e-02,-6.046583561370884319e-02,-6.314298145858403266e-02,-6.561238724932656752e-02,-6.771218944897171299e-02,-6.927573459564689839e-02,-7.015583023775860683e-02,-7.024770080233781744e-02,-6.950707875622842702e-02,-6.796238039181975998e-02,-6.571939898229293975e-02,-6.295440994795932499e-02,-5.989384248822515050e-02,-5.678665081016439492e-02,-5.388052622268443143e-02,-5.140875055822385215e-02,-4.958495626462857547e-02,-4.859756644915536744e-02,-4.859881362853485376e-02,-4.969099986436636973e-02,-5.191717328766132233e-02,-5.526079326298898725e-02,-5.965229765775258153e-02,-6.497596576543232527e-02,-7.107223597689034389e-02,-7.773696494885276587e-02,-8.472304658544120570e-02,-9.174792989156722867e-02,-9.850757643477262016e-02,-1.046967506473132220e-01,-1.100346379871519759e-01,-1.142923938930072159e-01,-1.173176360816997055e-01,-1.190514741089984674e-01,-1.195359771553123340e-01,-1.189124939295998912e-01,-1.174119166385855645e-01,-1.153366128133155588e-01,-1.130329997267773140e-01,-1.108558130173549622e-01,-1.091285736888115004e-01,-1.081063725642713996e-01,-1.079455578242871638e-01,-1.086818138536140982e-01,-1.102161108590851007e-01,-1.123080995735992321e-01,-1.145777900612952455e-01,-1.165174999208664769e-01,-1.175160516128065658e-01,-1.168959602623450417e-01,-1.139630905224873619e-01,-1.080673076920732611e-01,-9.867029996069477671e-02,-8.541218679475648390e-02,-6.816478102854618693e-02,-4.706124334343859961e-02,-2.250008597255712464e-02,4.869846715007872077e-03,3.417473510358057937e-02,6.434787073754033582e-02,9.417119028888923382e-02,1.223311292700916958e-01,1.474908965697131757e-01,1.683767158385001961e-01,1.838728255552762592e-01,1.931190947296828886e-01,0.000000000000000000e+00,0.000000000000000000e+00,0.000000000000000000e+00,0.000000000000000000e+00,0.000000000000000000e+00,0.000000000000000000e+00,0.000000000000000000e+00,0.000000000000000000e+00,0.000000000000000000e+00,0.000000000000000000e+00,0.000000000000000000e+00,0.000000000000000000e+00,0.000000000000000000e+00,0.000000000000000000e+00,0.000000000000000000e+00,0.000000000000000000e+00,0.000000000000000000e+00,0.000000000000000000e+00,0.000000000000000000e+00,0.000000000000000000e+00,0.000000000000000000e+00,0.000000000000000000e+00,0.000000000000000000e+00,0.000000000000000000e+00,0.000000000000000000e+00,0.000000000000000000e+00,0.000000000000000000e+00,0.000000000000000000e+00,0.000000000000000000e+00,0.000000000000000000e+00,0.000000000000000000e+00,0.000000000000000000e+00,0.000000000000000000e+00,0.000000000000000000e+00,0.000000000000000000e+00,0.000000000000000000e+00,0.000000000000000000e+00,0.000000000000000000e+00,0.000000000000000000e+00,0.000000000000000000e+00,0.000000000000000000e+00,0.000000000000000000e+00,0.000000000000000000e+00,0.000000000000000000e+00,0.000000000000000000e+00,0.000000000000000000e+00,0.000000000000000000e+00,0.000000000000000000e+00,0.000000000000000000e+00,0.000000000000000000e+00,0.000000000000000000e+00,0.000000000000000000e+00,0.000000000000000000e+00,0.000000000000000000e+00,0.000000000000000000e+00,0.000000000000000000e+00,0.000000000000000000e+00,0.000000000000000000e+00,0.000000000000000000e+00,0.000000000000000000e+00,0.000000000000000000e+00,0.000000000000000000e+00,0.000000000000000000e+00,0.000000000000000000e+00,0.000000000000000000e+00,0.000000000000000000e+00,0.000000000000000000e+00,0.000000000000000000e+00,0.000000000000000000e+00,0.000000000000000000e+00,0.000000000000000000e+00,0.000000000000000000e+00,0.000000000000000000e+00,0.000000000000000000e+00,0.000000000000000000e+00,0.000000000000000000e+00,0.000000000000000000e+00,0.000000000000000000e+00,0.000000000000000000e+00,0.000000000000000000e+00,0.000000000000000000e+00,0.000000000000000000e+00,0.000000000000000000e+00,0.000000000000000000e+00,0.000000000000000000e+00,0.000000000000000000e+00,0.000000000000000000e+00,0.000000000000000000e+00,0.000000000000000000e+00,0.000000000000000000e+00,0.000000000000000000e+00,0.000000000000000000e+00,0.000000000000000000e+00,0.000000000000000000e+00,0.000000000000000000e+00,0.000000000000000000e+00,0.000000000000000000e+00,0.000000000000000000e+00,0.000000000000000000e+00,0.000000000000000000e+00,0.000000000000000000e+00,0.000000000000000000e+00,0.000000000000000000e+00,0.000000000000000000e+00,0.000000000000000000e+00,0.000000000000000000e+00,0.000000000000000000e+00,0.000000000000000000e+00,0.000000000000000000e+00,0.000000000000000000e+00,0.000000000000000000e+00,0.000000000000000000e+00,0.000000000000000000e+00,0.000000000000000000e+00,0.000000000000000000e+00,0.000000000000000000e+00,0.000000000000000000e+00,0.000000000000000000e+00,0.000000000000000000e+00,0.000000000000000000e+00,0.000000000000000000e+00,0.000000000000000000e+00,0.000000000000000000e+00,0.000000000000000000e+00,0.000000000000000000e+00,0.000000000000000000e+00,0.000000000000000000e+00,0.000000000000000000e+00,0.000000000000000000e+00,0.000000000000000000e+00,0.000000000000000000e+00,0.000000000000000000e+00,0.000000000000000000e+00,0.000000000000000000e+00,0.000000000000000000e+00,0.000000000000000000e+00,0.000000000000000000e+00,0.000000000000000000e+00,0.000000000000000000e+00,0.000000000000000000e+00,0.000000000000000000e+00,0.000000000000000000e+00,0.000000000000000000e+00,0.000000000000000000e+00,0.000000000000000000e+00,0.000000000000000000e+00,0.000000000000000000e+00,0.000000000000000000e+00,0.000000000000000000e+00,0.000000000000000000e+00,0.000000000000000000e+00,0.000000000000000000e+00,0.000000000000000000e+00,0.000000000000000000e+00,0.000000000000000000e+00,0.000000000000000000e+00,0.000000000000000000e+00,0.000000000000000000e+00,0.000000000000000000e+00,0.000000000000000000e+00,0.000000000000000000e+00,0.000000000000000000e+00,0.000000000000000000e+00,0.000000000000000000e+00,0.000000000000000000e+00,0.000000000000000000e+00,0.000000000000000000e+00
