-3.356693966845757937e-01,-3.343655254859768111e-01,-3.278406544059142558e-01,-3.162802449767836421e-01,-3.000571975507604905e-01,-2.797360087664553241e-01,-2.560545869542786290e-01,-2.298854030128207049e-01,-2.021801106944469961e-01,-1.739051885851254364e-01,-1.459782720891458774e-01,-1.192130935244175849e-01,-9.427802930223438960e-02,-7.167112378471336698e-02,-5.171179566573074621e-02,-3.454705139514768764e-02,-2.016963596224320004e-02,-8.445323991818489556e-03,8.550637145722521544e-04,8.023903511905693814e-03,1.338809056870545952e-02,1.728369807697682781e-02,2.003368979685758028e-02,2.192988262501230010e-02,2.322220046271852509e-02,2.411746435004475178e-02,2.478582373200199918e-02,2.536948667250416012e-02,2.598863641999179727e-02,2.674191253977768051e-02,2.770196263510834103e-02,2.890931269238546444e-02,3.036827939053100139e-02,3.204698358716311785e-02,3.388205454640387526e-02,3.578771716045060780e-02,3.766745281261279360e-02,3.942523587352407544e-02,4.097413730345358940e-02,4.224174806356987416e-02,4.317288255515159406e-02,4.373114878198149091e-02,4.390147293047660937e-02,4.369336421210902321e-02,4.314195664507026323e-02,4.230481749530792118e-02,4.125562462384554235e-02,4.007685132827517455e-02,3.885268933371752859e-02,3.766308041095287745e-02,3.657963575515381371e-02,3.566319258982912632e-02,3.496183947727937724e-02,3.450848082992009208e-02,3.431786873536231408e-02,3.438431828014160141e-02,3.468253626984232896e-02,3.517297814060717925e-02,3.580971439689342728e-02,3.654688258834655479e-02,3.734195444352378379e-02,3.815726380491614445e-02,3.896190551329692386e-02,3.973436010599114970e-02,4.046392483486288549e-02,4.114853731146928678e-02,4.178906281845665843e-02,4.238262607607949650e-02,4.291691680507199458e-02,4.336593019408938043e-02,4.368809309935540314e-02,4.382815180254143184e-02,4.372323701677605784e-02,4.331286259798250438e-02,4.255198256271218449e-02,4.142446757588546385e-02,3.995300356056497026e-02,3.820205819316563334e-02,3.627303401669240007e-02,3.429374827587324676e-02,3.240542713448901768e-02,3.074909985797387099e-02,2.945264956611002086e-02,2.862031237567438588e-02,2.832556693969668846e-02,2.860645718555294981e-02,2.946203913721849241e-02,3.084996106453990680e-02,3.268644909008871363e-02,3.485063683088718972e-02,3.719503538043509444e-02,3.956190667258396854e-02,4.180216160633438288e-02,4.379221733106725828e-02,4.544568284183189005e-02,4.671838423628042747e-02,4.760638906292666284e-02,4.813853273899727087e-02,4.836642227800249522e-02,4.835418571820352535e-02,4.816890505052470739e-02,4.787273487660095167e-02,4.751787388237826981e-02,4.714471093567409316e-02,4.678303979746452346e-02,4.645619903731557782e-02,4.618647450376193314e-02,4.599846738759467285e-02,4.591869679522943976e-02,4.597286419641012645e-02,4.618252961767372461e-02,4.656111734085052051e-02,4.710904455434315047e-02,4.780942044955924924e-02,4.862631953733553142e-02,4.950631163581253186e-02,5.038300418704793476e-02,5.118522038567266397e-02,5.184966672869018023e-02,5.233598593916928554e-02,5.263839652843717992e-02,5.278847038160977556e-02,5.284824962944835447e-02,5.289729518117899931e-02,5.301814329818158728e-02,5.328308243101893132e-02,5.374362469928323227e-02,5.442346808195214214e-02,5.531561727292604036e-02,5.638390913678872907e-02,5.756849623305037439e-02,5.879465866105500205e-02,5.998434193539818604e-02,6.106849964657680430e-02,6.199637724308351694e-02,6.273854542202216000e-02,6.328406297573725692e-02,6.363501126380212425e-02,6.380173151315034208e-02,6.380051842369822979e-02,6.365389721024791725e-02,6.339281639634435084e-02,6.305984049977886308e-02,6.271167971540639319e-02,6.241832416265200717e-02,6.225648642015100404e-02,6.229770431002763786e-02,6.259429765638070686e-02,6.316791687713260717e-02,6.400614239447417753e-02,6.507098656017580585e-02,6.631715087887624094e-02,6.771117142454337323e-02,6.924135000923230254e-02,7.091353184413427824e-02,7.273574873112999273e-02,7.470103289465675200e-02,7.677802416930308571e-02,7.891286623123559829e-02,8.103901441976758824e-02,8.308975872701325482e-02,8.501080499593903494e-02,8.677231971279571188e-02,8.837867011066709300e-02,8.987147414635802967e-02,9.132196085353176673e-02,9.281377112364404269e-02,9.442276086901199572e-02,9.620091091495207303e-02,9.816816902718954185e-02,1.003129725631188296e-01,1.025999199198928818e-01,1.049809107616571091e-01,1.074056202937695159e-01,1.098290918602816829e-01,1.122165264733044759e-01,1.145464856542675464e-01,1.168133825060254788e-01,1.190281847099010915e-01,1.212146235910947084e-01,1.233999551412116868e-01,1.256033556424995257e-01,1.278270279750552407e-01,1.300540327349579972e-01,1.322545156209756212e-01,1.343986262798572973e-01,1.364709565677664771e-01,1.384805866945761632e-01,1.404632593245784267e-01,1.424758188101778456e-01,1.445859813432765484e-01,1.468608221130238423e-01,1.493551370400337253e-01,1.520996376992702626e-01,1.550909129727887636e-01,1.582869946005758255e-01,1.616102584811363041e-01,1.649552377456348085e-01,1.681979065594198242e-01,1.712052020873099378e-01,1.738447682250962023e-01,1.759947105708275783e-01,1.775541610091621592e-01,1.784563727145558332e-01,1.786836706938785546e-01,1.782792856491913491e-01,1.773495836337650455e-01,1.760535135311657728e-01,1.745817441166820083e-01,1.731314050263729754e-01,1.718816368656274074e-01,1.709731397694911337e-01,1.704944635563144795e-01,1.704775507514830479e-01,1.709031768668333451e-01,1.717144003422119980e-01,1.728339965798177946e-01,1.741805064653887680e-01,1.756782758486288842e-01,1.772598522603668625e-01,1.788624497480699183e-01,1.804223213350168720e-01,1.818710401893763040e-01,1.831361841214526054e-01,1.841473933326291113e-01,1.848473249606513713e-01,1.852039755865118043e-01,1.852180560904631290e-01,1.849212514605907964e-01,1.843670571864700347e-01,1.836187258892875152e-01,1.827370648104956474e-01,1.817692216267519645e-01,1.807403318869268416e-01,1.796501566290176488e-01,1.784752498224219941e-01,1.771757212916656443e-01,1.757051140463075922e-01,1.740215893679798453e-01,1.720988682167305939e-01,1.699358577869221898e-01,1.675631734187377486e-01,1.650438316897472890e-01,1.624662942706190105e-01,1.599304188165072971e-01,1.575295837651251862e-01,1.553343665453278954e-01,1.533826682646120820e-01,1.516777561097781002e-01,1.501922799704704659e-01,1.488752523794970584e-01,1.476597704923434118e-01,1.464702926145684536e-01,1.452288488019197465e-01,1.438601142908168817e-01,1.422959720059541189e-01,1.404804276619761316e-01,1.383750362577682858e-01,1.359637938166497473e-01,1.332561947184116580e-01,1.302882492888830512e-01,1.271216631735003211e-01,1.238401250722460378e-01,1.205412805332949921e-01,1.173252855356376051e-01,1.142834559350008189e-01,1.114907731681863551e-01,1.090042377163652626e-01,1.068659152834427473e-01,1.051057085026319005e-01,1.037384115598221218e-01,1.027547487672651333e-01,1.021114925728428963e-01,1.017261626560325843e-01,1.014794046690602886e-01,1.012257778786039841e-01,1.008106813529600077e-01,1.000887092923140459e-01,9.893951383563834301e-02,9.728012007305858466e-02,9.507428466348298579e-02,9.233867356578066843e-02,8.914353739154708134e-02,8.560523093551750118e-02,8.187121632329541487e-02,7.810179976665516943e-02,7.445261071702724553e-02,7.105938634187770886e-02,6.802596495975259117e-02,6.541711202695948968e-02,6.325714122560560648e-02,6.153375514416429409e-02,6.020599130583007691e-02,5.921484582171707839e-02,5.849441985791422466e-02,5.798134871181707950e-02,5.762059801706687773e-02,5.736622151423061144e-02,5.717770315527814090e-02,5.701500636278849371e-02,5.683522384422563106e-02,5.659156240983709285e-02,5.623504220260448772e-02,5.572021990596734420e-02,5.501521685018932739e-02,5.411355262371041891e-02,5.304277972749099623e-02,5.186419099898417068e-02,5.066104860776109164e-02,4.951911186043161245e-02,4.850733335551007941e-02,4.766523388218298074e-02,4.699922003909293849e-02,4.648648479367057523e-02,4.608327264768780074e-02,4.573444956945170448e-02,4.538289612619258312e-02,4.497798499997898714e-02,4.448164275769048159e-02,4.387064501670442929e-02,4.313562228203478288e-02,4.227839864513242840e-02,4.130887639489370239e-02,4.024221554638814091e-02,3.909688542444143822e-02,3.789365617065849207e-02,3.665541322975533756e-02,3.540797086278901773e-02,3.418133296983243141e-02,3.300967954405366334e-02,3.192905619866736461e-02,3.097313105289721535e-02,3.016715818572291569e-02,2.952045604366280995e-02,2.902021318885085119e-02,2.863124981288214452e-02,2.830408149447621521e-02,2.798830970386030625e-02,2.764451578896686551e-02,2.724939383835397327e-02,2.679440142505978492e-02,2.628171090444441499e-02,2.572017404246990102e-02,2.512204760592408326e-02,2.450085345483449598e-02,2.387024291883570876e-02,2.324271529231163036e-02,2.262742732025460959e-02,2.202777342506068159e-02,2.143949229558551883e-02,2.084852298376095939e-02,2.022746570737260496e-02,1.953206070648998149e-02,1.870195928444384065e-02,1.766926811600143948e-02,1.637414500477661627e-02,1.478314231820561028e-02,1.290545715686239672e-02,1.080309723000228740e-02,8.591282050982826032e-03,6.426667417896022097e-03,4.484883908091466011e-03,2.932986871828940911e-03,1.903326729655873155e-03,1.473711916235744554e-03,1.657130978796814364e-03,2.402653877289588451e-03,3.606363056030756006e-03,5.128711962580896275e-03,6.814158676955455081e-03,8.509208006666857046e-03,1.007551123840234528e-02,1.139675056519235535e-02,1.238125317735773272e-02,1.296403859897899205e-02,1.311083990951557830e-02,1.282328261597441392e-02,1.214140959071194001e-02,1.114002704779015057e-02,9.918492734482852249e-03,8.586060990902243464e-03,7.245603393870089087e-03,5.978924432236911238e-03,4.836638663062362703e-03,3.833804413767855600e-03,2.950860850533279685e-03,2.139395949454926237e-03,1.332865233186959243e-03,4.619485569365844183e-04,-5.275436670629006855e-04,-1.658349873224580252e-03,-2.911518406227382987e-03,-4.224426436419787337e-03,-5.496469504324559899e-03,-6.601430710439884150e-03,-7.405909059843184677e-03,-7.791328088479514656e-03,-7.674679057994246781e-03,-7.023553597642524099e-03,-5.863301288720711851e-03,-4.275964138091318915e-03,-2.391853490370318344e-03,-3.754956689149973356e-04,1.592206319541271137e-03,3.333968749798874552e-03,4.696273436566700266e-03,5.566691470315344309e-03,5.884984562307592204e-03,5.645631690243685906e-03,4.891756826664353866e-03,3.702854763411713400e-03,2.180003751712789473e-03,4.320790800938231020e-04,-1.434917501548533571e-03,-3.325246244386099049e-03,-5.158191154999798925e-03,-6.869791020472161384e-03,-8.410718484654978663e-03,-9.741871066145142352e-03,-1.083149241196688581e-02,-1.165614217412859824e-02,-1.220449866443132185e-02,-1.248133551268792302e-02,-1.250923722034541496e-02,-1.232710292453024700e-02,-1.198642878277294578e-02,-1.154636268247374170e-02,-1.106679742611453923e-02,-1.059892442258509801e-02,-1.017516708319379619e-02,-9.802162562698410117e-03,-9.460396600107312190e-03,-9.112441228621127876e-03,-8.717924547976891453e-03,-8.249413010278891165e-03,-7.703254966181638692e-03,-7.102910285322047712e-03,-6.495532624905601266e-03,-5.943854612350642566e-03,-5.515641469877817157e-03,-5.272544320977368484e-03,-5.259272104407457238e-03,-5.493785877697630882e-03,-5.959889998561623478e-03,-6.603662029738104934e-03,-7.334848074527647657e-03,-8.034871876488708722e-03,-8.572543335036139633e-03,-8.825408520150384434e-03,-8.702051240238492871e-03,-8.160332077801235248e-03,-7.216644885783413121e-03,-5.942707436915689589e-03,-4.451204076241523783e-03,-2.876085863971079154e-03,-1.353332117779906980e-03,-5.533552709694258831e-06,1.068306052443570957e-03,1.798272453746635816e-03,2.146262178915986536e-03,2.107003801700459145e-03,1.706777372628347483e-03,9.991109709159549414e-04,5.756271894294428312e-05,-1.033846146841725785e-03,-2.191296153198115347e-03,-3.340813835992989013e-03,-4.425326415992470765e-03,-5.408971760400958610e-03,-6.278543781775596661e-03,-7.041403670844735563e-03,-7.720078343028066031e-03,-8.344776802880543229e-03,-8.944895002782265320e-03,-9.541179440042577356e-03,-1.014132248518889202e-02,-1.073995400046921962e-02,-1.132042954298781781e-02,-1.185553262780496622e-02,-1.230733126187780885e-02,-1.262859214430536725e-02,-1.276742845923358599e-02,-1.267490455715118355e-02,-1.231441203998331901e-02,-1.167206669541884234e-02,-1.076711431921459003e-02,-9.659394860181129416e-03,-8.449387764432316969e-03,-7.267438079710221259e-03,-6.252692685191011367e-03,-5.527433990184182910e-03,-5.175208523613486489e-03,-5.228815959581794605e-03,-5.668943956365018501e-03,-6.430245418119194881e-03,-7.411025840485363503e-03,-8.484812103459166144e-03,-9.514778331180390181e-03,-1.037226853543587839e-02,-1.095692729582367977e-02,-1.121224479366804763e-02,-1.113222451798480395e-02,-1.075966416304306554e-02,-1.017740270788712424e-02,-9.492351337865665567e-03,-8.813966902288403182e-03,-8.232908225386701209e-03,-7.806729013388850891e-03,-7.556629897951289317e-03,-7.475155249460988145e-03,-7.541015190468114242e-03,-7.734780614702717674e-03,-8.049062721248573943e-03,-8.489181847471619080e-03,-9.064509746222372197e-03,-9.774789226496605199e-03,-1.059731966481992395e-02,-1.147993004105158331e-02,-1.234339677235833134e-02,-1.309510221593922566e-02,-1.365124135487247314e-02,-1.395992993088744291e-02,-1.401679415378283972e-02,-1.386822175356340441e-02,-1.360188959316755222e-02,-1.332765374702659690e-02,-1.315424238067731261e-02,-1.316769900030917428e-02,-1.341621373518007282e-02,-1.390410079514935691e-02,-1.459556639598721950e-02,-1.542598913018557345e-02,-1.631578477980256611e-02,-1.718215302970087580e-02,-1.794707754909207614e-02,-1.854260315308142032e-02,-1.891475238380063012e-02,-1.902627875093327800e-02,-1.885738169028639000e-02,-1.840411415627713279e-02,-1.767615228048686343e-02,-1.669648095333130244e-02,-1.550433482495353413e-02,-1.416011053953511283e-02,-1.274832912242276385e-02,-1.137461869334640760e-02,-1.015606929313083752e-02,-9.207797460350638022e-03,-8.628498393844552528e-03,-8.485918716899376948e-03,-8.803859551594798299e-03,-9.554785545616265377e-03,-1.066207416023819479e-02,-1.201302666894650886e-02,-1.348039520490492901e-02,-1.494676978332206210e-02,-1.632364233434557832e-02,-1.755824180554090008e-02,-1.862672930589414841e-02,-1.951896125946388227e-02,-2.022398638902185575e-02,-2.072372364723045965e-02,-2.099573533382237400e-02,-2.102064446678719722e-02,-2.078947619781490799e-02,-2.030831319546157893e-02,-1.959906903350048385e-02,-1.869672558845343613e-02,-1.764523853558287725e-02,-1.649392238670409350e-02,-1.529337069248406372e-02,-1.408883721356690710e-02,-1.291121885372975217e-02,-1.176857329823417786e-02,-1.064210474546995952e-02,-9.489406721759456598e-03,-8.255021410040743954e-03,-6.885889258019885044e-03,-5.348450735801817298e-03,-3.644062018437315906e-03,-1.818947894974596614e-03,3.473559607000686889e-05,1.788145767673373753e-03,3.294072188342656460e-03,4.410677460857973312e-03,5.025420019738917159e-03,5.074220870284377495e-03,4.552826282943614987e-03,3.519258840320001885e-03,2.087482345795900474e-03,4.129902782269798817e-04,-1.328274927778431069e-03,-2.964444895290134670e-03,-4.350626283876057009e-03,-5.385904051000377918e-03,-6.023057127945585613e-03,-6.270761128955401609e-03,-6.187080398110174351e-03,-5.864233032540731340e-03,-5.408937955277436094e-03,-4.925023379395898106e-03,-4.502155089011096109e-03,-4.209769675273066121e-03,-4.093055706322135286e-03,-4.169008805302373485e-03,-4.423470045484735429e-03,-4.812002897248444933e-03,-5.266103705016306896e-03,-5.702631748989029324e-03,-6.033048898405595634e-03,-6.171606741591843109e-03,-6.043980611273145828e-03,-5.596872691672217896e-03,-4.806268948543717355e-03,-3.680475537114518986e-03,-2.255737896670292116e-03,-5.861499060392241171e-04,1.268062309741687082e-03,3.250645761623191087e-03,5.316323516130333320e-03,7.434297712628864206e-03,9.589059087261231698e-03,1.177991122062229529e-02,1.401946033719109544e-02,1.633034801863591373e-02,1.874027038636373599e-02,2.127575402625295556e-02,2.395447253124972226e-02,2.677641218851939744e-02,2.971580708672827420e-02,3.271601660517477195e-02,3.568904743826412790e-02,3.852213110199509405e-02,4.109373297068087683e-02,4.329782622129640240e-02,4.507000633262073230e-02,4.640621198859657542e-02,4.736657477522939613e-02,4.806305186389850381e-02,4.863680727326537279e-02,4.923402985200297372e-02,4.998561818845762006e-02,5.099210709082923482e-02,5.231383273634413605e-02,5.396659924633646216e-02,5.592393737875036436e-02,5.812713502566688173e-02,6.050206110040468738e-02,6.297865385714528086e-02,6.550698410066528588e-02,6.806418237915248803e-02,7.065023861769312297e-02,7.327587798719790990e-02,7.594797360844300627e-02,7.865696628256775569e-02,8.136984908899869140e-02,8.403147311891033533e-02,8.657370860670808577e-02,8.892786251836060085e-02,9.103546891956121323e-02,9.285598271144154814e-02,9.437160197752311741e-02,9.558803613274592659e-02,9.652981079427774835e-02,9.723130172811700334e-02,9.772696025266154607e-02,9.804388341573137822e-02,9.819793267644220947e-02,9.819300989432690197e-02,9.802300715852391155e-02,9.767617646688135646e-02,9.714026060275790520e-02,9.640509860647522578e-02,9.546068320697280452e-02,9.429219998999137375e-02,9.287620490573650356e-02,9.118209556607941024e-02,8.918005738330647691e-02,8.685194077261744472e-02,8.419921798712541594e-02,8.124475114190159164e-02,7.802899238697709461e-02,7.460298755039956875e-02,7.102164954773766692e-02,6.734109680426021705e-02,6.362034972120676757e-02,5.992293287293475046e-02,5.631420245667671104e-02,5.285438764183921639e-02,4.958946119583689666e-02,4.654167660845515836e-02,4.370192037086919473e-02,4.102643095277210689e-02,3.843977832534663935e-02,3.584543704709732687e-02,3.314429183260163975e-02,3.025791913218076057e-02,2.714922706197106170e-02,2.383225135639237269e-02,2.036679962938459446e-02,1.684023710168098403e-02,1.334457660116011163e-02,9.957764811062971150e-03,6.732854909480594924e-03,3.693540101354851959e-03,8.343562531151723412e-04,-1.874087005642453060e-03,-4.474947165084662906e-03,-7.012456629765894192e-03,-9.520421266304361640e-03,-1.201545114906006281e-02,-1.449708595362632878e-02,-1.695440323501826857e-02,-1.937542917667000111e-02,-2.175357893630661121e-02,-2.408712160078441480e-02,-2.637310151037872141e-02,-2.860121096731234672e-02,-3.075147046148480820e-02,-3.279510544212127510e-02,-3.469663686853545481e-02,-3.641686045618892920e-02,-3.791687993717551136e-02,-3.916223617707711990e-02,-4.012600899961380613e-02,-4.079091230440227284e-02,-4.115127110932482318e-02,-4.121593978007048048e-02,-4.101275397662137306e-02,-4.059319509161442990e-02,-4.003370244981271919e-02,-3.943060737218165995e-02,-3.888883064203019907e-02,-3.850688914954300546e-02,-3.836109255689516828e-02,-3.849155029438401654e-02,-3.889315104150099095e-02,-3.951561947055930168e-02,-4.027542656689094003e-02,-4.107683052711347954e-02,-4.183325286440663787e-02,-4.248029232218082651e-02,-4.297875962780241255e-02,-4.331279122513821689e-02,-4.348813899134287841e-02,-4.353075200324454247e-02,-4.348153319859253407e-02,-4.338419014051046046e-02,-4.326867317196334689e-02,-4.313624270599793892e-02,-4.295017550236980564e-02,-4.263345167187466284e-02,-4.207478527609305463e-02,-4.114294242277704433e-02,-3.970537552450918023e-02,-3.764605774686426848e-02,-3.487996114143076393e-02,-3.136374122864174496e-02,-2.710321022250554782e-02,-2.215939106366256878e-02,-1.665444509907309384e-02,-1.077555946009267802e-02,-4.772385065282038104e-03,1.055275090767944859e-03,6.379133277465118095e-03,1.086937012297511072e-02,1.422160617373910592e-02,1.618038654251994016e-02,1.655756921275573779e-02,1.524434080796759072e-02,1.221661491846087223e-02,7.536137879159483105e-03,1.350494887075074247e-03,-6.107333709686801893e-03,-1.452247634520875165e-02,-2.350829703418284150e-02,-3.262461412366403357e-02,-4.140137839333871833e-02,-4.936217700402342756e-02,-5.604331848131440669e-02,-6.100854798813269697e-02,-6.386089119468618680e-02,-6.425064585662894345e-02,-6.187871905510160253e-02,-5.650024415774653613e-02,-4.793779431751499231e-02,-3.611039239058285583e-02,-2.107635986961288455e-02,-3.080926099994531642e-03,1.740313499380466075e-02,3.965229955905747589e-02,6.269423218654426866e-02,8.533899704620583060e-02,1.062382787138993756e-01,1.239661985011531464e-01,1.371138822955087766e-01,1.443909421521121783e-01,1.447272956047729875e-01,1.373691519488418611e-01,1.219636095242459667e-01,9.862236000284636817e-02,6.794709728462558496e-02,3.099799235433498348e-02,-1.080153597458241924e-02,-5.581111078394868086e-02,-1.023406803401501891e-01,-1.488021363313986045e-01,-1.938177208981095301e-01,-2.362763315657172292e-01,-2.753443841721555652e-01,-3.104438884499126083e-01,-3.412094510673602255e-01,-3.674339944715425132e-01,-3.890131494797309797e-01,-4.058984666914522421e-01,-4.180664853338743603e-01,-4.255051622423295377e-01,0.000000000000000000e+00,0.000000000000000000e+00,0.000000000000000000e+00,0.000000000000000000e+00,0.000000000000000000e+00,0.000000000000000000e+00,0.000000000000000000e+00,0.000000000000000000e+00,0.000000000000000000e+00,0.000000000000000000e+00,0.000000000000000000e+00,0.000000000000000000e+00,0.000000000000000000e+00,0.000000000000000000e+00,0.000000000000000000e+00,0.000000000000000000e+00,0.000000000000000000e+00,0.000000000000000000e+00,0.000000000000000000e+00,0.000000000000000000e+00,0.000000000000000000e+00,0.000000000000000000e+00,0.000000000000000000e+00,0.000000000000000000e+00,0.000000000000000000e+00,0.000000000000000000e+00,0.000000000000000000e+00,0.000000000000000000e+00,0.000000000000000000e+00,0.000000000000000000e+00,0.000000000000000000e+00,0.000000000000000000e+00,0.000000000000000000e+00,0.000000000000000000e+00,0.000000000000000000e+00,0.000000000000000000e+00,0.000000000000000000e+00,0.000000000000000000e+00,0.000000000000000000e+00,0.000000000000000000e+00,0.000000000000000000e+00,0.000000000000000000e+00,0.000000000000000000e+00,0.000000000000000000e+00,0.000000000000000000e+00,0.000000000000000000e+00,0.000000000000000000e+00
-4.282158008770581836e-01,-4.262293047742792829e-01,-4.196363055800458874e-01,-4.086272548318163889e-01,-3.935318993505263485e-01,-3.748428107897693873e-01,-3.532101737498159477e-01,-3.294051906044839773e-01,-3.042610077899949861e-01,-2.786064540826189151e-01,-2.532073423967688419e-01,-2.287246917074358121e-01,-2.056923851281721172e-01,-1.845112620356619548e-01,-1.654539291106533749e-01,-1.486751081537467101e-01,-1.342250007026830061e-01,-1.220655802540930590e-01,-1.120900165534633036e-01,-1.041433232361456962e-01,-9.803990586454031098e-02,-9.357434397918117097e-02,-9.052584702446381248e-02,-8.866052872989356459e-02,-8.773577013545076630e-02,-8.750831741289380461e-02,-8.774498210013356725e-02,-8.823338835795666024e-02,-8.879020579853333373e-02,-8.926525182699392158e-02,-8.954142275313843602e-02,-8.953209182074019223e-02,-8.917837428715595649e-02,-8.844778020573296207e-02,-8.733391218521141530e-02,-8.585597160805881478e-02,-8.405770080669595912e-02,-8.200625587069743094e-02,-7.979094634063768621e-02,-7.752033278880000877e-02,-7.531493333497478460e-02,-7.329358658754137057e-02,-7.155552007847088003e-02,-7.016406010744159760e-02,-6.913731352454810519e-02,-6.844779241653624335e-02,-6.803097907764908692e-02,-6.780129518245776865e-02,-6.767087247023942376e-02,-6.756456056571405466e-02,-6.742650578822066698e-02,-6.721821901920342623e-02,-6.691270962380012344e-02,-6.649104161292981874e-02,-6.594407671300103746e-02,-6.527613551334265907e-02,-6.450570115390914794e-02,-6.366189471175545678e-02,-6.277874144586101379e-02,-6.188969712211096763e-02,-6.102395253409597514e-02,-6.020465751593492842e-02,-5.944809488153426913e-02,-5.876314424313365536e-02,-5.815203187568789012e-02,-5.761428594745241633e-02,-5.715410938030129201e-02,-5.678789003577450201e-02,-5.654622747984247577e-02,-5.646663263607683975e-02,-5.657911940309431204e-02,-5.689196413627906068e-02,-5.738388385437556000e-02,-5.800462683046035683e-02,-5.868334356415292469e-02,-5.934231806414922566e-02,-5.991137797487278149e-02,-6.033807389626731632e-02,-6.059203301471852848e-02,-6.066584701275280073e-02,-6.057540785684534246e-02,-6.035934224415627491e-02,-6.007376456167154433e-02,-5.977903430301413634e-02,-5.952036214428953198e-02,-5.931026564142981988e-02,-5.912236755686286344e-02,-5.890040779693299366e-02,-5.857761472648709972e-02,-5.809697115767520348e-02,-5.742501105701419001e-02,-5.655652742979809522e-02,-5.551114359591005631e-02,-5.432545086372592841e-02,-5.304636553067707677e-02,-5.172956911533122676e-02,-5.044106101713256851e-02,-4.925581761089146970e-02,-4.824970038141706413e-02,-4.748598767061785325e-02,-4.700138278549521181e-02,-4.679685730075881789e-02,-4.683699406290119105e-02,-4.705835225787557280e-02,-4.738363086414657671e-02,-4.773572066404803416e-02,-4.804610615211784425e-02,-4.825595946638652073e-02,-4.831332381308887924e-02,-4.817193410386248764e-02,-4.779459088158786312e-02,-4.715973102134662920e-02,-4.626824206904327219e-02,-4.514846606915660227e-02,-4.385781072168057348e-02,-4.247920304489023052e-02,-4.111171612249678309e-02,-3.985718716781371657e-02,-3.880643728400712256e-02,-3.802786447020120586e-02,-3.755848348504314121e-02,-3.739652910625249765e-02,-3.749708292358643058e-02,-3.777436335878679025e-02,-3.811298312718603559e-02,-3.838692067185941331e-02,-3.848201844078653899e-02,-3.831628498913805525e-02,-3.785210390412779846e-02,-3.709646042111217762e-02,-3.608961839826110157e-02,-3.488723128309140914e-02,-3.354287484602912900e-02,-3.209657134139733137e-02,-3.057170561849751819e-02,-2.897975689179597969e-02,-2.732948075897372042e-02,-2.563492934890840638e-02,-2.391776710202668174e-02,-2.220414662482062679e-02,-2.052019009262686516e-02,-1.888928002673651019e-02,-1.733128275314250316e-02,-1.586261067236344885e-02,-1.449681505730037595e-02,-1.324551696834100518e-02,-1.211848101586800869e-02,-1.112159712323153131e-02,-1.025337008299747124e-02,-9.502719505685874868e-03,-8.850862740365863374e-03,-8.276982791342792078e-03,-7.764253243087643371e-03,-7.302578316579298040e-03,-6.886328461046303286e-03,-6.507819414944391104e-03,-6.149771813683399362e-03,-5.780852782144407787e-03,-5.356355949249404051e-03,-4.823034775022472763e-03,-4.125404934398758071e-03,-3.210504482823501107e-03,-2.029214679179353054e-03,-5.350424187833044800e-04,1.316429325789823758e-03,3.564486580886290848e-03,6.235779443091390289e-03,9.334169797309409267e-03,1.283189933679619241e-02,1.666600091108650511e-02,2.074147528523532721e-02,2.494059886304541424e-02,2.913705419848508157e-02,3.321207537855128816e-02,3.706729431561206489e-02,4.062955252851678523e-02,4.384756532374992771e-02,4.668475422560897786e-02,4.911365136361711681e-02,5.111527568161359364e-02,5.268371247748949299e-02,5.383409710050789110e-02,5.461173497050317988e-02,5.509920392054127453e-02,5.541676214124316435e-02,5.571269905963512764e-02,5.614561342791024590e-02,5.686509563156930125e-02,5.799632935012470625e-02,5.962946265956642344e-02,6.181153745315440956e-02,6.454006822630162232e-02,6.776080515159205175e-02,7.137328045076724026e-02,7.524451507493706837e-02,7.922658773144847233e-02,8.317204640922069847e-02,8.694382545738396639e-02,9.042084132975568289e-02,9.350265725092909985e-02,9.611514445925586902e-02,9.821657640102508802e-02,9.980245297948581173e-02,1.009071957111380147e-01,1.016012296658199282e-01,1.019831726449085263e-01,1.021684155723568826e-01,1.022764759558895120e-01,1.024196664571411369e-01,1.026946345278483136e-01,1.031768011850424382e-01,1.039168120197199174e-01,1.049379301032154904e-01,1.062334299800045539e-01,1.077641686248365510e-01,1.094584544035573093e-01,1.112168864502510873e-01,1.129230340786813724e-01,1.144579510438592795e-01,1.157144156017515801e-01,1.166076579539197661e-01,1.170827732954683731e-01,1.171205037970977220e-01,1.167411692083901581e-01,1.160054438591008735e-01,1.150117111418324928e-01,1.138895786051471182e-01,1.127878963530366957e-01,1.118567809789169087e-01,1.112262581743351242e-01,1.109855429776826774e-01,1.111665938296600570e-01,1.117354897106239836e-01,1.125941284148765376e-01,1.135915052104720518e-01,1.145414712832263648e-01,1.152444879145762685e-01,1.155119860935302778e-01,1.151913743122216782e-01,1.141885562123858555e-01,1.124843488566745625e-01,1.101415485334139438e-01,1.073002893567056720e-01,1.041606246592442914e-01,1.009535291022323339e-01,9.790508181970562773e-02,9.520139731106753989e-02,9.296177663978524852e-02,9.122523620074196593e-02,8.995202570155694244e-02,8.903770210541583907e-02,8.833543457147663425e-02,8.768283751202166076e-02,8.692903060729549602e-02,8.595580944512148935e-02,8.468829541965809671e-02,8.309517973545475777e-02,8.118204011131179010e-02,7.898178652842309522e-02,7.654564666096348724e-02,7.393616531728158803e-02,7.122102254089868190e-02,6.846626139699975300e-02,6.573015750656280298e-02,6.306027503515392041e-02,6.049432144825486052e-02,5.806310756383800675e-02,5.579333220397351273e-02,5.370828033798361739e-02,5.182567787825316519e-02,5.015421468677472294e-02,4.869166645231275126e-02,4.742605248174865118e-02,4.633838319085990115e-02,4.540438238563289375e-02,4.459399734450676667e-02,4.387002639838290946e-02,4.318851373110733916e-02,4.250237155864980410e-02,4.176726150417609668e-02,4.094762646368210052e-02,4.002108750787483626e-02,3.897954528557945331e-02,3.782569647129298274e-02,3.656581558097869722e-02,3.520240824054185480e-02,3.373101055288359879e-02,3.214257204793213862e-02,3.042815838976811044e-02,2.858120987549989112e-02,2.659678574216186447e-02,2.447188237209416140e-02,2.221039637237390632e-02,1.983236851965348643e-02,1.738399922731423755e-02,1.494348170970857814e-02,1.261814295869684993e-02,1.053136540925685323e-02,8.801724374307127313e-03,7.519480990160350674e-03,6.726870639929208827e-03,6.408308224348116186e-03,6.493662167904126238e-03,6.873294986631814721e-03,7.420074304572425901e-03,8.011854749506259685e-03,8.548270058587270626e-03,8.958438612382114627e-03,9.200260517885177486e-03,9.255007660398849312e-03,9.121347736820514460e-03,8.811058252076458749e-03,8.346157639619896859e-03,7.756030012436916643e-03,7.073649780811526108e-03,6.330640434549367201e-03,5.551452740828163694e-03,4.748823976100149599e-03,3.924443440393840001e-03,3.076575805644472805e-03,2.210369580371449906e-03,1.342248324718027953e-03,4.923676371595133664e-04,-3.319479954155398426e-04,-1.150588310178749570e-03,-2.012132151627351977e-03,-2.980879375395157748e-03,-4.116377468543062045e-03,-5.453314716424355509e-03,-6.986548509993499231e-03,-8.664560070154600849e-03,-1.039396962870197706e-02,-1.205470336313015263e-02,-1.352141891245925778e-02,-1.468560989674967156e-02,-1.547425891919350718e-02,-1.586219616468129492e-02,-1.587587399179667472e-02,-1.558727852260115287e-02,-1.509869819016617862e-02,-1.452176045036732144e-02,-1.395609762170922294e-02,-1.347256906095144723e-02,-1.310393282474989901e-02,-1.284415195634068529e-02,-1.265582936521373464e-02,-1.248298406430846559e-02,-1.226557100098981529e-02,-1.195380998316354637e-02,-1.152147123982623020e-02,-1.097596654799566293e-02,-1.036221610934038098e-02,-9.758861853191616934e-03,-9.267743895668091939e-03,-8.998950293675173073e-03,-9.054336476234207953e-03,-9.512227645087115505e-03,-1.041513223281814032e-02,-1.176193026019013016e-02,-1.350633944136417700e-02,-1.556246682190351449e-02,-1.781557405917581077e-02,-2.013433668574616739e-02,-2.238135300628243604e-02,-2.442124937398989712e-02,-2.612902264253620654e-02,-2.740154881698435643e-02,-2.817116315185732786e-02,-2.841684599374299028e-02,-2.816958424133686120e-02,-2.751117731445159448e-02,-2.656696619036183829e-02,-2.549287812074105611e-02,-2.445687454652842319e-02,-2.361580034693304755e-02,-2.309146919864348349e-02,-2.295188683346852110e-02,-2.320182616918070248e-02,-2.378322806312861692e-02,-2.458397597449682101e-02,-2.545412303811107196e-02,-2.622904747282139501e-02,-2.675723880087901851e-02,-2.692736533717346101e-02,-2.668781540112596939e-02,-2.605371663723781220e-02,-2.510002023972360621e-02,-2.394244182641353316e-02,-2.271123255687563375e-02,-2.152586854572511449e-02,-2.047842408774867493e-02,-1.962826274103465080e-02,-1.900524205057119859e-02,-1.861689746737085413e-02,-1.845581618840865315e-02,-1.850498422689681247e-02,-1.874172011539654986e-02,-1.914288948332653131e-02,-1.969218963218195839e-02,-2.038650223380673171e-02,-2.123746904691970958e-02,-2.226673155904470777e-02,-2.349598437597062023e-02,-2.493498948378672017e-02,-2.657098371441143914e-02,-2.836126653740100520e-02,-3.023004446020451097e-02,-3.207173733968604612e-02,-3.376221395024386202e-02,-3.517593538445223239e-02,-3.620469222209254934e-02,-3.677399459457272868e-02,-3.685429554470192465e-02,-3.646545989398700116e-02,-3.567422478763926375e-02,-3.458504783124299181e-02,-3.332526223387684283e-02,-3.202706549803742420e-02,-3.081020066725664863e-02,-2.976815780875956621e-02,-2.895898745199872865e-02,-2.840199100784189523e-02,-2.808186841251885876e-02,-2.795964152802926997e-02,-2.798621035874246030e-02,-2.811298889394152345e-02,-2.829621033565956831e-02,-2.849585694956225865e-02,-2.867346206236599110e-02,-2.879288663562384887e-02,-2.882523244260077125e-02,-2.875595937290443410e-02,-2.859080826954066984e-02,-2.835710200581260942e-02,-2.809818164689189407e-02,-2.786153416758325660e-02,-2.768462513615296827e-02,-2.758409009218827992e-02,-2.755233692034159826e-02,-2.756195826888880804e-02,-2.757525287811216086e-02,-2.755501106562962751e-02,-2.747303394662284348e-02,-2.731433541890366731e-02,-2.707753659457644291e-02,-2.677350139570729495e-02,-2.642305809435892619e-02,-2.605324746405371025e-02,-2.569270730944077374e-02,-2.536818632745289556e-02,-2.510299828322499691e-02,-2.491653850099913303e-02,-2.482380988781136139e-02,-2.483394443542337460e-02,-2.494690989932394146e-02,-2.514943885506180227e-02,-2.541327307459363000e-02,-2.569817110054518558e-02,-2.595895197254676628e-02,-2.615313514572169956e-02,-2.624581655458460908e-02,-2.621099924402241210e-02,-2.603143997510076399e-02,-2.570004574617369350e-02,-2.522430474313073004e-02,-2.463199242323256544e-02,-2.397360160128709367e-02,-2.331727193854360100e-02,-2.273599617784877874e-02,-2.229136615197351359e-02,-2.201915660441290667e-02,-2.192009311093408644e-02,-2.195785133220765073e-02,-2.206574188665763950e-02,-2.216109193827179788e-02,-2.216354804766937359e-02,-2.201331260246058158e-02,-2.168616995342643322e-02,-2.120191000398570502e-02,-2.062301645065112848e-02,-2.004304873781552823e-02,-1.956780631524682179e-02,-1.929473523920779629e-02,-1.929580984492475226e-02,-1.960673102152431929e-02,-2.022277744493778534e-02,-2.110107067448451293e-02,-2.216957071771376298e-02,-2.334173199305776547e-02,-2.453259006122956651e-02,-2.567123184881970124e-02,-2.670719476471048598e-02,-2.761120904303709933e-02,-2.837200905982145346e-02,-2.899079024108754468e-02,-2.947393522109016673e-02,-2.982453778326035060e-02,-3.003436108254727704e-02,-3.007827486461640137e-02,-2.991274150530919343e-02,-2.948009315077362857e-02,-2.871972243252064044e-02,-2.758377149424158861e-02,-2.605178618548621011e-02,-2.414061410514480033e-02,-2.190977623381841488e-02,-1.946264836522002689e-02,-1.694100266480105116e-02,-1.451059614439563494e-02,-1.233944164033522889e-02,-1.057397089230857276e-02,-9.318949134618163821e-03,-8.624938432366851052e-03,-8.483737414550593381e-03,-8.830480546162056479e-03,-9.552617451793553316e-03,-1.050752999183938823e-02,-1.154791102061156378e-02,-1.254869961757388609e-02,-1.342674795175208269e-02,-1.414739193260672150e-02,-1.471832706105418408e-02,-1.517554682428910728e-02,-1.556655399409740369e-02,-1.593523573959470391e-02,-1.631226060480680390e-02,-1.671269410246381884e-02,-1.713867120970694394e-02,-1.758305352196184654e-02,-1.803175091268630417e-02,-1.846490004422791584e-02,-1.885777201927777910e-02,-1.918188959619095829e-02,-1.940639922945291279e-02,-1.949932217288927530e-02,-1.942845784363107092e-02,-1.916245807976865029e-02,-1.867294725210124490e-02,-1.793831296254784838e-02,-1.694918325588902486e-02,-1.571449050220620133e-02,-1.426644536031380223e-02,-1.266397652531105721e-02,-1.099512698473675831e-02,-9.376870868975295190e-03,-7.948201604029795156e-03,-6.853525932525173468e-03,-6.218714628633288839e-03,-6.127628409342202910e-03,-6.607402510663813386e-03,-7.625324811879517772e-03,-9.094383035346443808e-03,-1.088332918775415659e-02,-1.282898948677786699e-02,-1.475020226702017205e-02,-1.646328356231750376e-02,-1.779885450857757179e-02,-1.861911909251921793e-02,-1.883308720934662867e-02,-1.840659393176433470e-02,-1.736556570185092754e-02,-1.579239468613914329e-02,-1.381483740489235050e-02,-1.158737693814766885e-02,-9.268254698061913904e-03,-6.998481857314450306e-03,-4.888819924440914420e-03,-3.016862686334009086e-03,-1.431701313226406685e-03,-1.614528938738056204e-04,7.804176994398874566e-04,1.392355082150783640e-03,1.685689750987985104e-03,1.686683642966839512e-03,1.435860189350746628e-03,9.833416021828255121e-04,3.822646275984831633e-04,-3.174225491155630626e-04,-1.073495321645575457e-03,-1.852391320650801591e-03,-2.625315934391699024e-03,-3.362107114192322728e-03,-4.027761532948375897e-03,-4.584252631003987374e-03,-4.996104682120450745e-03,-5.235890603386529965e-03,-5.287018847801044745e-03,-5.143953852978088923e-03,-4.810749402691649572e-03,-4.297773518487075714e-03,-3.617145280944968674e-03,-2.779336071171414988e-03,-1.793025721234860420e-03,-6.675857256022266857e-04,5.839108201670127401e-04,1.942683931571426072e-03,3.384478178019764520e-03,4.882816474801699586e-03,6.413729752212604662e-03,7.958740267926997167e-03,9.504887040711694490e-03,1.104369250070721953e-02,1.257128242044429356e-02,1.408987917883209977e-02,1.560908017328649713e-02,1.714534294499287306e-02,1.872025113295232648e-02,2.035969944804021103e-02,2.209405685139666925e-02,2.395643169429655453e-02,2.597732939289723597e-02,2.817796668431886420e-02,3.056654954634040883e-02,3.314022657262531701e-02,3.589098539142583644e-02,3.880975786734206651e-02,4.188419219305759833e-02,4.509094354846192310e-02,4.838648630540463152e-02,5.169975330388317664e-02,5.492951145751327063e-02,5.795004434021955309e-02,6.062716052778040904e-02,6.284240366645400810e-02,6.451945037428095941e-02,6.564506237218424578e-02,6.627832597227717448e-02,6.654581841190344849e-02,6.662427669378588602e-02,6.671426799590376988e-02,6.700951829085492750e-02,6.766817748938847021e-02,6.879242066547848478e-02,7.041990025419805899e-02,7.252627323984239816e-02,7.503476750741534806e-02,7.782892304619908053e-02,8.076870382632894696e-02,8.371279026442543514e-02,8.654559743493647761e-02,8.920079984802044282e-02,9.167246584859595204e-02,9.401051018535562520e-02,9.630314348993276874e-02,9.865227809934574987e-02,1.011483916039194048e-01,1.038498491940278573e-01,1.067698053213877868e-01,1.098721340081247333e-01,1.130754911879905261e-01,1.162626896816820327e-01,1.192928640505551280e-01,1.220149893949098868e-01,1.242816348609920019e-01,1.259624248452684281e-01,1.269569418045841391e-01,1.272050432505709983e-01,1.266913246409992477e-01,1.254427280354570573e-01,1.235214739758613983e-01,1.210159033143438645e-01,1.180306790693001068e-01,1.146780349598356258e-01,1.110723507092621770e-01,1.073286024525369059e-01,1.035623127583258085e-01,9.988752981017615107e-02,9.641060453807895336e-02,9.322011996545900847e-02,9.037610357588250765e-02,8.790251634099233158e-02,8.578477325513240992e-02,8.397101416307539701e-02,8.237513004763398483e-02,8.088075026764166009e-02,7.934670989604822311e-02,7.761591124469210956e-02,7.552996896999987497e-02,7.294992663292178270e-02,6.977996190766228013e-02,6.598827342244943661e-02,6.161825847768574033e-02,5.678545980447614189e-02,5.166098298587595838e-02,4.644592670422447583e-02,4.134185059934825102e-02,3.652149325249404166e-02,3.210357615913528306e-02,2.813565812916934625e-02,2.458922703330027743e-02,2.136980740170984702e-02,1.834039130758856675e-02,1.535164003916036218e-02,1.227085334333481541e-02,9.003307571762405107e-03,5.502494512246672298e-03,1.769738179628999692e-03,-2.153289924782939534e-03,-6.195664864811370985e-03,-1.026984530882032315e-02,-1.428397572437136408e-02,-1.815133717631196159e-02,-2.179470396038290375e-02,-2.514506158856080753e-02,-2.813656549592840478e-02,-3.070118644646791309e-02,-3.276611761968982461e-02,-3.425618463303391897e-02,-3.510303945147414534e-02,-3.526034687109005222e-02,-3.471991373261892194e-02,-3.352274586372843562e-02,-3.176226399620347973e-02,-2.957996424822583251e-02,-2.715459383268607058e-02,-2.468633925677786445e-02,-2.237844030663735037e-02,-2.041833798595424007e-02,-1.895917393512053239e-02,-1.810329593274618079e-02,-1.789205003200359731e-02,-1.830552688211787779e-02,-1.927094619010719448e-02,-2.067505224687342380e-02,-2.237808981599145181e-02,-2.423025260036204553e-02,-2.609068521433560717e-02,-2.784540255296220207e-02,-2.941908556773926986e-02,-3.077880339059994169e-02,-3.193139688982563756e-02,-3.291633109142876046e-02,-3.379396699657410963e-02,-3.462892208537695499e-02,-3.546966113058393905e-02,-3.632795036455023496e-02,-3.716428846239581280e-02,-3.788454151290557292e-02,-3.834787683113150686e-02,-3.838203872245011389e-02,-3.780277405955306813e-02,-3.643618963577149872e-02,-3.414236030538098099e-02,-3.083730031070014768e-02,-2.651025194088254405e-02,-2.123332892118905829e-02,-1.516092610001689572e-02,-8.517910184519422376e-03,-1.578129601356123698e-03,5.362372531027482202e-03,1.201069243368448752e-02,1.809440501536499143e-02,2.336788307242078019e-02,2.760905590761666625e-02,3.061161348215055145e-02,3.217976370585652612e-02,3.213167326139290680e-02,3.031363689947602288e-02,2.662383050393944336e-02,2.104364432159540679e-02,1.367209407461789442e-02,4.753988469974694368e-03,-5.308812280658589677e-03,-1.596870403223066628e-02,-2.656509573878441943e-02,-3.637310491779033317e-02,-4.466018133516327926e-02,-5.074210402083715460e-02,-5.403138428422900319e-02,-5.407214510397895246e-02,-5.055701256567493584e-02,-4.332799851341300607e-02,-3.237130926514589918e-02,-1.781701466814987131e-02,5.144676505457440163e-05,2.078025077074097116e-02,4.372886170033166847e-02,6.806455171012272543e-02,9.277422934892201600e-02,1.166945749659768217e-01,1.385582978866924941e-01,1.570530027924416927e-01,1.708894450210622640e-01,1.788779233635435506e-01,1.800121128660554237e-01,1.735568140227192191e-01,1.591318532601860014e-01,1.367795527726169968e-01,1.069978705403723807e-01,7.072069081861363793e-02,2.923699325280629258e-02,-1.594053140891378215e-02,-6.322914936038803724e-02,-1.111168690689575411e-01,-1.582629595360290631e-01,-2.035479088729778840e-01,-2.460784712269271091e-01,-2.851620387158254610e-01,-3.202657700137071517e-01,-3.509724342136916198e-01,-3.769409372255022039e-01,-3.978778037791365629e-01,-4.135249659408898326e-01,-4.236659148457941337e-01,0.000000000000000000e+00,0.000000000000000000e+00,0.000000000000000000e+00,0.000000000000000000e+00,0.000000000000000000e+00,0.000000000000000000e+00,0.000000000000000000e+00,0.000000000000000000e+00,0.000000000000000000e+00,0.000000000000000000e+00,0.000000000000000000e+00,0.000000000000000000e+00,0.000000000000000000e+00,0.000000000000000000e+00,0.000000000000000000e+00,0.000000000000000000e+00,0.000000000000000000e+00,0.000000000000000000e+00,0.000000000000000000e+00,0.000000000000000000e+00,0.000000000000000000e+00,0.000000000000000000e+00,0.000000000000000000e+00,0.000000000000000000e+00,0.000000000000000000e+00,0.000000000000000000e+00,0.000000000000000000e+00,0.000000000000000000e+00,0.000000000000000000e+00,0.000000000000000000e+00,0.000000000000000000e+00,0.000000000000000000e+00,0.000000000000000000e+00,0.000000000000000000e+00,0.000000000000000000e+00,0.000000000000000000e+00,0.000000000000000000e+00,0.000000000000000000e+00,0.000000000000000000e+00,0.000000000000000000e+00,0.000000000000000000e+00,0.000000000000000000e+00,0.000000000000000000e+00,0.000000000000000000e+00,0.000000000000000000e+00,0.000000000000000000e+00,0.000000000000000000e+00,0.000000000000000000e+00,0.000000000000000000e+00,0.000000000000000000e+00,0.000000000000000000e+00,0.000000000000000000e+00,0.000000000000000000e+00,0.000000000000000000e+00,0.000000000000000000e+00,0.000000000000000000e+00,0.000000000000000000e+00,0.000000000000000000e+00,0.000000000000000000e+00,0.000000000000000000e+00
-4.281473054248242649e-01,-4.269108304876811366e-01,-4.200314955289612961e-01,-4.077579543437790943e-01,-3.905455324292140262e-01,-3.690689774982763849e-01,-3.442057164699263705e-01,-3.169888203730641951e-01,-2.885365984889314284e-01,-2.599704970091384348e-01,-2.323336297743555101e-01,-2.065195861842346048e-01,-1.832184444472231832e-01,-1.628848281349391247e-01,-1.457295179345012015e-01,-1.317327015711961535e-01,-1.206759428036211917e-01,-1.121899023080398794e-01,-1.058122991531759149e-01,-1.010466307724580959e-01,-9.741165489212876005e-02,-9.447594904435711871e-02,-9.187745634303924602e-02,-8.933177257213639755e-02,-8.663433865056305305e-02,-8.366059788453512891e-02,-8.036539226718304729e-02,-7.678007088148393333e-02,-7.300420862164781755e-02,-6.918955531841991524e-02,-6.551712656228206311e-02,-6.217205094304609214e-02,-5.932201724604431459e-02,-5.710296596212031256e-02,-5.561112305348977353e-02,-5.489711400582752976e-02,-5.495968828378005461e-02,-5.574152924523195773e-02,-5.713141405344094453e-02,-5.897465823865136181e-02,-6.109085841582782839e-02,-6.329516297428335048e-02,-6.541727268794669814e-02,-6.731395653894128861e-02,-6.887491176664961579e-02,-7.002384022578751754e-02,-7.071641239239886967e-02,-7.093695842248667893e-02,-7.069591309322541262e-02,-7.002851718435158801e-02,-6.899304357987241787e-02,-6.766621953823850899e-02,-6.613502189830368361e-02,-6.448647512006656923e-02,-6.279891736125184365e-02,-6.113764809521796822e-02,-5.955479529343589429e-02,-5.809045234685648179e-02,-5.677229171251260004e-02,-5.561333502399249534e-02,-5.460963383078745043e-02,-5.373946954835015499e-02,-5.296454225598772048e-02,-5.223400132538686541e-02,-5.149300458874005171e-02,-5.069537296852462405e-02,-4.981563205737473549e-02,-4.885427661404286026e-02,-4.783373142525234462e-02,-4.678770970182704464e-02,-4.574944486929390791e-02,-4.474415543083127417e-02,-4.378849960329613683e-02,-4.289570645271326144e-02,-4.208294683253129692e-02,-4.137846711142314365e-02,-4.082675543247816369e-02,-4.048903627875743982e-02,-4.043648575679659185e-02,-4.073646120510613505e-02,-4.143560785544297270e-02,-4.254518681793079127e-02,-4.403233116631777994e-02,-4.581748574671037910e-02,-4.777684274781002910e-02,-4.975047836769093401e-02,-5.155767930739997562e-02,-5.301821048643018397e-02,-5.397590882512538768e-02,-5.432078685147102848e-02,-5.400492446279499953e-02,-5.304637158045879403e-02,-5.151865290448716383e-02,-4.953112628388552097e-02,-4.721056181995900158e-02,-4.469181848117238787e-02,-4.211766779536412625e-02,-3.964052380231127687e-02,-3.741709291984995911e-02,-3.559236436976248585e-02,-3.427773685706638623e-02,-3.353280571978890096e-02,-3.335889457697312210e-02,-3.370652276605951708e-02,-3.449192160816971775e-02,-3.561406177432913100e-02,-3.696616419060106545e-02,-3.844097277589994532e-02,-3.993220326062080217e-02,-4.133539420266889308e-02,-4.255143271636108865e-02,-4.349446227353788441e-02,-4.410276043147001029e-02,-4.434885779569920639e-02,-4.424455261776566450e-02,-4.383759155810729169e-02,-4.320049031106660414e-02,-4.241592951916560439e-02,-4.156318550849323612e-02,-4.070743977157550986e-02,-3.989269417066277496e-02,-3.913906427693150669e-02,-3.844443778166472397e-02,-3.778959095737155494e-02,-3.714537375558579074e-02,-3.647993059740736038e-02,-3.576418461682494970e-02,-3.497524182197578324e-02,-3.409758806914461177e-02,-3.312120824604339320e-02,-3.203708379723702038e-02,-3.083293149977129124e-02,-2.949210768078281905e-02,-2.799673435915732769e-02,-2.633429919117609430e-02,-2.450510038176365729e-02,-2.252650497537810048e-02,-2.043138680451500946e-02,-1.826190981310412895e-02,-1.606227942574723483e-02,-1.387340720296557917e-02,-1.172993341841407217e-02,-9.657602144963242305e-03,-7.669224703053388603e-03,-5.760979283312385110e-03,-3.912862956192529260e-03,-2.094765808004327243e-03,-2.767218498814946162e-04,1.558669348933201283e-03,3.404041290283588844e-03,5.218981884941644410e-03,6.929705453086048260e-03,8.439055110325941952e-03,9.645695767072777829e-03,1.046683910743008428e-02,1.085683071190820040e-02,1.081703444848186070e-02,1.039763818746636086e-02,9.694347498731334736e-03,8.841587144185848735e-03,8.001791794193174184e-03,7.350325573900647058e-03,7.057195319512526294e-03,7.268061618535032360e-03,8.087238520068472727e-03,9.564912816818099336e-03,1.169054168355592414e-02,1.439414965660464757e-02,1.755584600813140869e-02,2.102175254882307845e-02,2.462356902014132751e-02,2.819903007746425022e-02,3.161058879075446387e-02,3.476059967655473898e-02,3.760240043850204827e-02,4.014569668033150102e-02,4.245278135079741388e-02,4.462321950482008026e-02,4.676922989921168672e-02,4.898831223008582453e-02,5.134006868038366173e-02,5.383171285785359056e-02,5.641520039045782448e-02,5.899821021438710761e-02,6.146798302753139764e-02,6.372139293885663303e-02,6.569140020692440518e-02,6.736223227445245487e-02,6.877075168833388097e-02,6.999582979254523329e-02,7.114034406793511012e-02,7.231170237539372159e-02,7.360581695595497242e-02,7.509694500749035384e-02,7.683400711276421047e-02,7.884257413762613131e-02,8.112921453999069610e-02,8.368371701984034239e-02,8.647732137559183130e-02,8.945873662170542029e-02,9.255124198727684992e-02,9.565431233443513759e-02,9.865274281772723475e-02,1.014338359193920763e-01,1.039087499866129111e-01,1.060303712810323484e-01,1.078004958215080800e-01,1.092643269264080563e-01,1.104965028505424524e-01,1.115849751466408274e-01,1.126163579598133679e-01,1.136632538925072544e-01,1.147739577880423079e-01,1.159661612631851246e-01,1.172261515941908500e-01,1.185140038927150336e-01,1.197741060293088800e-01,1.209482849878029537e-01,1.219871038262496515e-01,1.228562321056697187e-01,1.235384650951291824e-01,1.240346062689285794e-01,1.243660177393776101e-01,1.245781650513065747e-01,1.247403057221339873e-01,1.249360715243992004e-01,1.252444390255086637e-01,1.257166961876689526e-01,1.263584798097373008e-01,1.271247029731241429e-01,1.279288712846218257e-01,1.286609201320082496e-01,1.292057705165008397e-01,1.294589368292023701e-01,1.293394814037246709e-01,1.288003368694764228e-01,1.278340124758441110e-01,1.264716270871894255e-01,1.247752324812454044e-01,1.228258270954305370e-01,1.207109569330714477e-01,1.185152388289725106e-01,1.163150400492396763e-01,1.141768059370718291e-01,1.121571245260215149e-01,1.103012373287173553e-01,1.086374347586539085e-01,1.071682292112320634e-01,1.058625536760377656e-01,1.046541571090650324e-01,1.034494222203748703e-01,1.021432603490786128e-01,1.006371099826873505e-01,9.885272221663225778e-02,9.673945453198701250e-02,9.427642001247740766e-02,9.147148505854715839e-02,8.835857542090358452e-02,8.499452221409731223e-02,8.145601928535306513e-02,7.783572404187645566e-02,7.423557172513770008e-02,7.075664526670373544e-02,6.748745289952670645e-02,6.449337700643162363e-02,6.180915519628954469e-02,5.943606394826707329e-02,5.734607411122554649e-02,5.549348132582496845e-02,5.382972789506262901e-02,5.231414153282885199e-02,5.091648876874843577e-02,4.961350143083388675e-02,4.838436803576342399e-02,4.720841926779757725e-02,4.606530911364393327e-02,4.493644558379028542e-02,4.380669129210158774e-02,4.266582313825962453e-02,4.150817389160403603e-02,4.032817156798767372e-02,3.911216671613958196e-02,3.783118990914483004e-02,3.644042254350418619e-02,3.488797718003520953e-02,3.313074287638044513e-02,3.115154528556545940e-02,2.897105554433413235e-02,2.664967361995408679e-02,2.427848691031778139e-02,2.196284812637329040e-02,1.980462295023617883e-02,1.788866811100142326e-02,1.627623857602735272e-02,1.500419299831571435e-02,1.408681223202867816e-02,1.351808159631468116e-02,1.327389927268887368e-02,1.331422673914860536e-02,1.358604335117103920e-02,1.402831186332733661e-02,1.457793185029479868e-02,1.517323125719089068e-02,1.575284962414484624e-02,1.625232444699273998e-02,1.660381522319994904e-02,1.674242695716808907e-02,1.661714048843153033e-02,1.620078429427862510e-02,1.549388195014784336e-02,1.451999527381814085e-02,1.331408067770444709e-02,1.190899495107813726e-02,1.032658108089038601e-02,8.577630676912048266e-03,6.670339248890808093e-03,4.622510173077284956e-03,2.471349144926600089e-03,2.765805050433369156e-04,-1.883752464650789455e-03,-3.922556176300830491e-03,-5.754811301812877943e-03,-7.307394320389078157e-03,-8.525414403527794768e-03,-9.375188264059754542e-03,-9.845924562478888808e-03,-9.951982813907168934e-03,-9.735378398701491354e-03,-9.265648816805679977e-03,-8.634099574298290461e-03,-7.942897664446526423e-03,-7.292662880044827912e-03,-6.771067386454977799e-03,-6.441928156251808778e-03,-6.334793786891509439e-03,-6.438411213417126640e-03,-6.701906032113821680e-03,-7.043965620668492418e-03,-7.367745542777309406e-03,-7.579428523737625351e-03,-7.607732278631002681e-03,-7.419347646987919584e-03,-7.025317680602296416e-03,-6.476858684107348295e-03,-5.852640585543607624e-03,-5.241474997931579692e-03,-4.725126843662628973e-03,-4.364763837773870912e-03,-4.191975785144246187e-03,-4.204082752310296135e-03,-4.364184855078940065e-03,-4.607245868075102516e-03,-4.853003456274542285e-03,-5.023870476996030073e-03,-5.062371031747277088e-03,-4.942179425301143798e-03,-4.671071325736101884e-03,-4.288144533245029540e-03,-3.857550590062098529e-03,-3.459355132883906898e-03,-3.177901904883904255e-03,-3.088473528756120051e-03,-3.244139877308716176e-03,-3.666414139854079490e-03,-4.342783661266706556e-03,-5.230760439414323601e-03,-6.265934540723613368e-03,-7.372334558167539451e-03,-8.474002147318427866e-03,-9.505876947498031332e-03,-1.042252355794454945e-02,-1.120487358368807418e-02,-1.186473592665917599e-02,-1.244470866787117033e-02,-1.301111317475861333e-02,-1.364021877525831497e-02,-1.440066349780667367e-02,-1.533632123960434156e-02,-1.645379109794768355e-02,-1.771703549560780730e-02,-1.904966206505372822e-02,-2.034432932502164629e-02,-2.147832779371382922e-02,-2.233352806453165265e-02,-2.281727102513403382e-02,-2.287918014190647165e-02,-2.251953554999045273e-02,-2.178841314999367673e-02,-2.077787995296244070e-02,-1.960961952555086499e-02,-1.841977454212814780e-02,-1.734361882963453630e-02,-1.650250270420083876e-02,-1.599289751337736390e-02,-1.587586265385431544e-02,-1.616740683753926239e-02,-1.683335860803579151e-02,-1.779303284790660286e-02,-1.893315675922329494e-02,-2.012877891094427135e-02,-2.126496790016155561e-02,-2.225403049194439251e-02,-2.304561850696235786e-02,-2.362917604089081330e-02,-2.402972010936387653e-02,-2.429865050377892632e-02,-2.450069505429887037e-02,-2.469797814085658572e-02,-2.493389768104752741e-02,-2.522114638711760864e-02,-2.553791156523534459e-02,-2.583405066810490897e-02,-2.604514622409682262e-02,-2.610860922702850501e-02,-2.597588431813202536e-02,-2.561832393256487789e-02,-2.502761965444282727e-02,-2.421282968057096238e-02,-2.319582434466025550e-02,-2.200596952426484010e-02,-2.067394054328612271e-02,-1.922552791057443797e-02,-1.767851592731382177e-02,-1.604544002124313334e-02,-1.434122580046326943e-02,-1.259132059402076793e-02,-1.083617184417622580e-02,-9.130688605257441040e-03,-7.540213737168768339e-03,-6.136022116912074297e-03,-4.992296317435623160e-03,-4.183599614658162560e-03,-3.780134319785926136e-03,-3.839239657166542037e-03,-4.394310904483232465e-03,-5.444546149221676443e-03,-6.949174228942314561e-03,-8.827848313653392440e-03,-1.096636399036196585e-02,-1.322566751051631496e-02,-1.545242510124316369e-02,-1.749046131179623348e-02,-1.919366188093489869e-02,-2.044137026219783673e-02,-2.115527898310845534e-02,-2.131344922182122278e-02,-2.095607422694947125e-02,-2.018004023089521592e-02,-1.912300913509246136e-02,-1.794088386132178248e-02,-1.678436875288843999e-02,-1.578025902923867879e-02,-1.502120613765196150e-02,-1.456477643191907839e-02,-1.443935437046790261e-02,-1.465203399143918950e-02,-1.519374211987059228e-02,-1.603932758616254117e-02,-1.714339209291680655e-02,-1.843554789163072763e-02,-1.982072081822763149e-02,-2.118810379149362044e-02,-2.242667172055819169e-02,-2.344158523584629825e-02,-2.416702815781063968e-02,-2.457327160101716729e-02,-2.466694983842955199e-02,-2.448537138955241693e-02,-2.408775414500365086e-02,-2.354650544088548320e-02,-2.294038946155859543e-02,-2.234988837528823283e-02,-2.185356762311131337e-02,-2.152348417215520920e-02,-2.141848985935861094e-02,-2.157619043807023143e-02,-2.200589535367195732e-02,-2.268475986373759412e-02,-2.355757994064949096e-02,-2.453971994089222675e-02,-2.552376211584767018e-02,-2.639128473979004269e-02,-2.702908090025607502e-02,-2.734552743437832292e-02,-2.728166611590144078e-02,-2.681399971327403861e-02,-2.594943085106581754e-02,-2.471572462983726709e-02,-2.315309312087238461e-02,-2.131146252961713464e-02,-1.925348848952609590e-02,-1.706011336259314129e-02,-1.483469098607474376e-02,-1.270094063961936005e-02,-1.079131775327650880e-02,-9.228300348619154422e-03,-8.106532436395912089e-03,-7.482585718260121449e-03,-7.372900466845151018e-03,-7.755503652859740624e-03,-8.571005801887980960e-03,-9.722459456106674267e-03,-1.107814147816173558e-02,-1.248177123022738144e-02,-1.377085276842206739e-02,-1.479954920222598114e-02,-1.546006238209033171e-02,-1.569635788790118419e-02,-1.550703153889473884e-02,-1.493858430365182545e-02,-1.407246088791195941e-02,-1.300861246680430280e-02,-1.184849591287647115e-02,-1.068146913382196639e-02,-9.577437260163374627e-03,-8.585825317655108868e-03,-7.739210936508491255e-03,-7.059056011779135144e-03,-6.560420608226427523e-03,-6.253784401649358816e-03,-6.144891960925246907e-03,-6.235322389950791015e-03,-6.525381806381296175e-03,-7.017384079906487451e-03,-7.715225492826538294e-03,-8.619147999505361035e-03,-9.719654342690850837e-03,-1.099462480541936807e-02,-1.240899314064679466e-02,-1.391414151791100888e-02,-1.544654494079478364e-02,-1.692709717003587633e-02,-1.826187963291613786e-02,-1.934482216265516821e-02,-2.006378447158522690e-02,-2.031165794134877356e-02,-2.000228529623540932e-02,-1.908888819968995731e-02,-1.758075298495983749e-02,-1.555216322035677702e-02,-1.313778306022502299e-02,-1.051290871582609941e-02,-7.864339088099775443e-03,-5.362937651267909306e-03,-3.147426936220786703e-03,-1.322132155638113026e-03,3.518019244084494204e-05,8.625155891630652358e-04,1.107270304261374818e-03,7.289157115327395305e-04,-2.898036050522252174e-04,-1.928402049106398052e-03,-4.117110675167597392e-03,-6.732377718517493226e-03,-9.600925136502250212e-03,-1.251178576125510332e-02,-1.523468173290683236e-02,-1.754282960001333699e-02,-1.923731565974895474e-02,-2.016899754359906607e-02,-2.025466349911229230e-02,-1.948626396679187939e-02,-1.793272013635212325e-02,-1.573368467912592689e-02,-1.308581904938782396e-02,-1.022328003012633151e-02,-7.393657159625074970e-03,-4.831067515647113203e-03,-2.730593856503113568e-03,-1.229312908117951696e-03,-3.970919893112695399e-04,-2.374373473119857137e-04,-6.966027925984096978e-04,-1.678023543590382617e-03,-3.059173902056711112e-03,-4.708417175431491714e-03,-6.499122299152664851e-03,-8.318206023842917088e-03,-1.006805703628032948e-02,-1.166352690696097726e-02,-1.302701592535315464e-02,-1.408467287284548980e-02,-1.476619378579646646e-02,-1.500903321358426981e-02,-1.476553068581517962e-02,-1.401051450303665569e-02,-1.274777545267985826e-02,-1.101502602750883790e-02,-8.887090060914166340e-03,-6.475557468050996239e-03,-3.921728809119370655e-03,-1.381323221781592496e-03,9.960042929605021980e-04,3.085888760904159298e-03,4.801399264124199540e-03,6.095513169185311914e-03,6.955039210886025322e-03,7.390549155341951705e-03,7.428194509948260645e-03,7.106494455628256136e-03,6.476632733049649156e-03,5.602963870746985667e-03,4.561743478666463285e-03,3.437880467357986441e-03,2.320343977838324519e-03,1.296608559297997114e-03,4.459091317793303704e-04,-1.683317338267556799e-04,-5.053769755577795049e-04,-5.521174206584574754e-04,-3.252631766693134621e-04,1.314077145477398224e-04,7.572061449549689948e-04,1.491117683834452309e-03,2.289949100768626841e-03,3.142198080236109116e-03,4.072958196144170137e-03,5.138120659734220740e-03,6.410920060401831613e-03,7.966691846061503546e-03,9.869795691928424930e-03,1.216348218196211528e-02,1.486252181209290688e-02,1.794823958363021832e-02,2.136529740938473282e-02,2.502092056770956890e-02,2.878932196979101799e-02,3.252377990626187376e-02,3.607623750106003085e-02,3.932074800301033068e-02,4.217320392889782610e-02,4.459908050729964601e-02,4.660661706945875421e-02,4.823072079847189747e-02,4.951627490312354718e-02,5.050760629383234390e-02,5.124624322679042360e-02,5.177462536223062517e-02,5.214172447489697632e-02,5.240724867689317695e-02,5.264224492438373398e-02,5.292581646032459841e-02,5.334010022913972943e-02,5.396565832682222175e-02,5.487684801300241749e-02,5.613546241902116901e-02,5.778264022206769379e-02,5.983123065824703241e-02,6.226140292927367925e-02,6.502152108344672055e-02,6.803468117147340455e-02,7.120927662391374202e-02,7.445058974729265588e-02,7.767040140671097048e-02,8.079264232970780057e-02,8.375495984801335780e-02,8.650855781397591426e-02,8.901986383373476641e-02,9.127540563775665694e-02,9.328720433293485881e-02,9.509376869238669872e-02,9.675331954472839169e-02,9.833004080554272330e-02,9.987799950295311868e-02,1.014283984531629962e-01,1.029836712427665696e-01,1.045184610310010143e-01,1.059853290430803480e-01,1.073229816859441188e-01,1.084655130557228009e-01,1.093512280542929122e-01,1.099291537433385174e-01,1.101618159946606418e-01,1.100253607734838907e-01,1.095104895286787977e-01,1.086261077189401847e-01,1.074031535460405890e-01,1.058944640405235088e-01,1.041693038197699234e-01,1.023043139302999283e-01,1.003735125089480346e-01,9.843937568368445190e-02,9.654636656442598663e-02,9.471806183463600537e-02,9.295811292037808871e-02,9.125303905707929375e-02,8.957375074926474112e-02,8.787507878134856454e-02,8.609636358968458802e-02,8.416705044745716180e-02,8.201827501344183258e-02,7.959766106801523244e-02,7.688240218928465985e-02,7.388525224747399811e-02,7.064987234243871872e-02,6.723668068184623925e-02,6.370518663233311341e-02,6.009989509394036283e-02,5.644425694394707149e-02,5.274325250254801450e-02,4.899197187867482262e-02,4.518686673944939669e-02,4.133747786765588211e-02,3.747580686192757138e-02,3.365869029028512038e-02,2.996002613735761905e-02,2.645427317048196225e-02,2.319634927664028165e-02,2.020436908076386762e-02,1.745024057996122022e-02,1.485968202690370749e-02,1.232147832126653623e-02,9.706500712203544254e-03,6.895104606487372466e-03,3.806200981739981878e-03,4.190160380417897986e-04,-3.217948184013462443e-03,-6.991539121058006241e-03,-1.074079194801424997e-02,-1.428372701410020838e-02,-1.744957516285164031e-02,-2.010839310407094502e-02,-2.218897439596626345e-02,-2.368059183475533513e-02,-2.462192609795654449e-02,-2.508473489050333516e-02,-2.515810455449018351e-02,-2.493616555256198894e-02,-2.451079221000115188e-02,-2.396882292973671891e-02,-2.339078665969183263e-02,-2.284865075472808371e-02,-2.240343305221439291e-02,-2.210479549466255744e-02,-2.199257637836018672e-02,-2.209818281401635526e-02,-2.244378681491280073e-02,-2.303841003537578092e-02,-2.387168546800827462e-02,-2.490794251879849611e-02,-2.608446300487993544e-02,-2.731723526193681820e-02,-2.851398183065644021e-02,-2.958932358886844777e-02,-3.047548625519080207e-02,-3.112541849084688242e-02,-3.151031351757455079e-02,-3.161697153985695841e-02,-3.144993243266432786e-02,-3.103841444105269812e-02,-3.044264771792723479e-02,-2.975303156362169715e-02,-2.907877521033953166e-02,-2.852715451320855800e-02,-2.817863025910798472e-02,-2.806594689311413260e-02,-2.816444007644683736e-02,-2.839511528202805918e-02,-2.863568118918025790e-02,-2.873313078139944424e-02,-2.851494214553652873e-02,-2.779992381167436730e-02,-2.641085135546669682e-02,-2.418979017220945077e-02,-2.101558640414810317e-02,-1.682288059650899684e-02,-1.162177423980713560e-02,-5.515027909074592116e-03,1.292589770582761467e-03,8.497242093352161407e-03,1.571237260765057445e-02,2.249644794818438098e-02,2.838804834695502627e-02,3.294364614462503421e-02,3.577406492999458260e-02,3.657653608057340189e-02,3.516035740815488808e-02,3.146562335295632895e-02,2.557495179693818413e-02,1.771696540436883821e-02,8.259833923780747489e-03,-2.305268905688203328e-03,-1.338963968576284240e-02,-2.434004547850975031e-02,-3.447623159503124257e-02,-4.312782448494211635e-02,-4.966724528224030627e-02,-5.353922740901784216e-02,-5.428809319695142993e-02,-5.158208248208134145e-02,-4.523348589443532131e-02,-3.521309922227252448e-02,-2.165782517938358645e-02,-4.873262988423706331e-03,1.466467233458735621e-02,3.630778254265908805e-02,5.923627732880198254e-02,8.246694349303390625e-02,1.048737636747028440e-01,1.252246084682477056e-01,1.422337929359477893e-01,1.546271868664338689e-01,1.612171621743785643e-01,1.609859206223598627e-01,1.531745853585391448e-01,1.373721632343460064e-01,1.135917688226341510e-01,8.231284785811067428e-02,4.446783015330461886e-02,1.365665996959371893e-03,-4.543521811487731543e-02,-9.427674941330729808e-02,-1.435407931650044266e-01,-1.917528174850067213e-01,-2.376409652418277618e-01,-2.801577494396216284e-01,-3.184774054336818594e-01,-3.519787828288030718e-01,-3.802189278620891622e-01,-4.029016182060428664e-01,-4.198476210734095604e-01,-4.309748042188500938e-01,0.000000000000000000e+00,0.000000000000000000e+00,0.000000000000000000e+00,0.000000000000000000e+00,0.000000000000000000e+00,0.000000000000000000e+00,0.000000000000000000e+00,0.000000000000000000e+00,0.000000000000000000e+00,0.000000000000000000e+00,0.000000000000000000e+00,0.000000000000000000e+00,0.000000000000000000e+00,0.000000000000000000e+00,0.000000000000000000e+00,0.000000000000000000e+00,0.000000000000000000e+00,0.000000000000000000e+00,0.000000000000000000e+00,0.000000000000000000e+00,0.000000000000000000e+00,0.000000000000000000e+00,0.000000000000000000e+00,0.000000000000000000e+00,0.000000000000000000e+00,0.000000000000000000e+00,0.000000000000000000e+00,0.000000000000000000e+00,0.000000000000000000e+00,0.000000000000000000e+00,0.000000000000000000e+00,0.000000000000000000e+00,0.000000000000000000e+00,0.000000000000000000e+00,0.000000000000000000e+00,0.000000000000000000e+00,0.000000000000000000e+00,0.000000000000000000e+00,0.000000000000000000e+00,0.000000000000000000e+00,0.000000000000000000e+00,0.000000000000000000e+00
-4.362928735823455306e-01,-4.359112116390339575e-01,-4.300544123855237211e-01,-4.190799515717605894e-01,-4.034919304787494831e-01,-3.839433894187503915e-01,-3.612213029218498961e-01,-3.362128450389326728e-01,-3.098553532683360756e-01,-2.830755964791549784e-01,-2.567270658171959541e-01,-2.315349643033409732e-01,-2.080565593496398191e-01,-1.866614677506325537e-01,-1.675335524381718344e-01,-1.506928871733140274e-01,-1.360324631611721513e-01,-1.233617896179954321e-01,-1.124502933517888825e-01,-1.030664169916449685e-01,-9.500995815547619294e-02,-8.813408083095142231e-02,-8.235297390621898472e-02,-7.763453277904090732e-02,-7.398209866162985815e-02,-7.141083219945618121e-02,-6.992320323632332524e-02,-6.948718206803500275e-02,-7.002033209482926013e-02,-7.138245331678959305e-02,-7.337833621744688228e-02,-7.576951098087919556e-02,-7.829089937080935258e-02,-8.066879051762797237e-02,-8.263958381481555093e-02,-8.396915231998466900e-02,-8.447090645367454076e-02,-8.402091004636169647e-02,-8.256967538454719480e-02,-8.014930264953097627e-02,-7.687315776320903515e-02,-7.292645808287909204e-02,-6.854874622670667494e-02,-6.401052809069968097e-02,-5.958680268516192841e-02,-5.553117031184435365e-02,-5.205446115741110824e-02,-4.931014942238819837e-02,-4.738620339469074016e-02,-4.630141597924321978e-02,-4.600556003424560725e-02,-4.638599062209147056e-02,-4.728373120105617416e-02,-4.851764658665281421e-02,-4.991050890852229832e-02,-5.130985448680464717e-02,-5.259918327327216259e-02,-5.369927077849188241e-02,-5.456302179216333814e-02,-5.516815234315731314e-02,-5.551014142731491852e-02,-5.559603708166289959e-02,-5.543938881917990363e-02,-5.505704261210182804e-02,-5.446875269496121580e-02,-5.370001556991568087e-02,-5.278701614457419200e-02,-5.178093175655835989e-02,-5.074867210360829023e-02,-4.976866777571083839e-02,-4.892211238996388434e-02,-4.828134228977552095e-02,-4.789787057045540031e-02,-4.779262571556075478e-02,-4.795040808498617080e-02,-4.832006350706384568e-02,-4.882056479450947589e-02,-4.935076940944169849e-02,-4.979932559496606098e-02,-5.005266728058248987e-02,-5.000173539459631944e-02,-4.954963954622448180e-02,-4.862169973382791943e-02,-4.717619964081800482e-02,-4.521160834601864464e-02,-4.276823175710395275e-02,-3.992754737218769112e-02,-3.681313889283892998e-02,-3.359141104644242787e-02,-3.046577555043274502e-02,-2.765994480450813253e-02,-2.539130943047267913e-02,-2.383967377382327849e-02,-2.311868701786965602e-02,-2.325706347548721353e-02,-2.419390104943532419e-02,-2.578831879268926944e-02,-2.784021505801872326e-02,-3.011678741812099519e-02,-3.237889952653442982e-02,-3.440319596994197843e-02,-3.599932181611150556e-02,-3.702424980270561244e-02,-3.739514585547275977e-02,-3.709846779560978247e-02,-3.619041217030466440e-02,-3.478661958055162540e-02,-3.304427147678272447e-02,-3.114125011819903963e-02,-2.925542048745786300e-02,-2.754660679889317162e-02,-2.614384610503346293e-02,-2.513860386056486138e-02,-2.458261040733162109e-02,-2.448859156929942410e-02,-2.483209146945082949e-02,-2.555296417123548158e-02,-2.655708471000828991e-02,-2.772026640828389316e-02,-2.889557245671338717e-02,-2.992430981962256042e-02,-3.065092186186854986e-02,-3.094078900117238143e-02,-3.069778830435842751e-02,-2.987779838758854167e-02,-2.849543381364046460e-02,-2.662297070354809753e-02,-2.438243536170582940e-02,-2.193314745975226063e-02,-1.945676055118042425e-02,-1.714149632505646004e-02,-1.516700922821187861e-02,-1.368981590785591472e-02,-1.282852887643130130e-02,-1.265033569215544274e-02,-1.316209602703369286e-02,-1.430798428570149300e-02,-1.597300452814325727e-02,-1.799099055473136685e-02,-2.015637294255389136e-02,-2.223942316767864302e-02,-2.400459409247530235e-02,-2.523116169107092466e-02,-2.573489121711334052e-02,-2.538913109310744765e-02,-2.414280934093199563e-02,-2.203094625952214947e-02,-1.917305362458293291e-02,-1.575850465165570119e-02,-1.202276458641601993e-02,-8.219524021537229219e-03,-4.591796926717165231e-03,-1.343979375035984610e-03,1.381942723981804564e-03,3.521181181441358429e-03,5.087661118897687969e-03,6.162123595652825928e-03,6.871609444818950647e-03,7.367068689893735943e-03,7.804398472978940453e-03,8.330878037577696058e-03,9.075456770247451732e-03,1.014026551449344511e-02,1.159292428598238112e-02,1.346140788462276035e-02,1.573253861375217832e-02,1.835374315517157920e-02,2.123823633027708060e-02,2.427484244024811361e-02,2.734321183160949922e-02,3.033326901926004446e-02,3.316465748355327398e-02,3.579930360334448308e-02,3.824141102651473778e-02,4.052480530585828716e-02,4.269313628348598427e-02,4.478003969757051589e-02,4.679513186983508960e-02,4.872015810520467088e-02,5.051684928030512195e-02,5.214317885399244457e-02,5.357080041582139296e-02,5.479652976708701551e-02,5.584439643378741325e-02,5.676008487282038772e-02,5.760331726628258042e-02,5.844270437018628250e-02,5.935360035769512294e-02,6.041716810695094142e-02,6.171875890697205852e-02,6.334405378141379217e-02,6.537253226364887759e-02,6.786955368776573239e-02,7.087832812776924396e-02,7.441157204231500788e-02,7.844296391111543754e-02,8.290073334224011548e-02,8.766694055241465444e-02,9.258547639017597475e-02,9.747952971418188950e-02,1.021747515365352549e-01,1.065204708603041256e-01,1.104022719716890588e-01,1.137441836415833685e-01,1.165031536553306352e-01,1.186602879502821895e-01,1.202133894106390266e-01,1.211740740618788004e-01,1.215701734717830745e-01,1.214513768510567526e-01,1.208942784324050640e-01,1.200029827246960473e-01,1.189039004639155794e-01,1.177367089384832727e-01,1.166443138434846843e-01,1.157628861098099898e-01,1.152115440040621386e-01,1.150813340566684273e-01,1.154244779968661844e-01,1.162467266749563216e-01,1.175058685468918923e-01,1.191165851916486246e-01,1.209591504377351412e-01,1.228903521413596822e-01,1.247571019946676213e-01,1.264127634732927219e-01,1.277343297011004353e-01,1.286371998762771418e-01,1.290831156260610069e-01,1.290772431580672619e-01,1.286545906967043740e-01,1.278615996025527501e-01,1.267409653838995620e-01,1.253249104127220348e-01,1.236372574877898090e-01,1.217016928151778143e-01,1.195532028671564412e-01,1.172496528374079444e-01,1.148798524151126849e-01,1.125646894494285871e-01,1.104497492389200780e-01,1.086894643089434814e-01,1.074234180037836328e-01,1.067472483604557099e-01,1.066846908407441119e-01,1.071702401316178832e-01,1.080498507759066334e-01,1.091008237829536598e-01,1.100659229206402689e-01,1.106938236533465403e-01,1.107778101946448462e-01,1.101852517887669941e-01,1.088713338219616245e-01,1.068739092901435372e-01,1.042927383869875907e-01,1.012616372244559415e-01,9.792226353161399832e-02,9.440458643691235219e-02,9.081503347503314116e-02,8.723109156450968571e-02,8.370115300528312152e-02,8.024907300487531259e-02,7.688221708044877534e-02,7.360050630792358550e-02,7.040429232151099170e-02,6.730008266563212993e-02,6.430332724369987318e-02,6.143777958539935191e-02,5.873264141835247976e-02,5.621953243596425343e-02,5.392981594051564354e-02,5.189160449590043966e-02,5.012664426626676356e-02,4.864840053746757181e-02,4.746207042957865940e-02,4.656495994949175210e-02,4.594408594971823023e-02,4.556986640124065235e-02,4.538879429971522106e-02,4.531929405668490979e-02,4.525289416674144194e-02,4.506109740523964874e-02,4.460819843868496504e-02,4.376939948089807186e-02,4.245100696524645861e-02,4.060788847657539197e-02,3.825439117961488417e-02,3.546681068663591618e-02,3.237667981590908878e-02,2.915523542979787594e-02,2.599132583206171035e-02,2.306718244091887637e-02,2.053666883436400248e-02,1.850792394925692211e-02,1.703022706503262707e-02,1.608706355396735330e-02,1.560037594543562008e-02,1.544798276575292013e-02,1.548843684953182462e-02,1.558432438941294122e-02,1.561919447163907793e-02,1.550831274817279781e-02,1.520451588624205548e-02,1.469942627948427581e-02,1.401997092092238661e-02,1.322122192008035740e-02,1.237735133808848600e-02,1.157094731446185222e-02,1.087888055654692189e-02,1.035424435005430008e-02,1.000826626772559173e-02,9.798876807047680187e-03,9.631248976975325532e-03,9.371855338760285564e-03,8.873750663360421842e-03,8.007744170233154629e-03,6.692443011971917557e-03,4.916326769376426660e-03,2.746739622974234477e-03,3.233465487633774759e-04,-2.162869723641652232e-03,-4.500306737035452559e-03,-6.490196641326511154e-03,-7.975870424515175972e-03,-8.862952711555646332e-03,-9.129115977935829684e-03,-8.824483799240974771e-03,-8.063894912542064752e-03,-7.012237556786849423e-03,-5.864965071929688530e-03,-4.825859993368441375e-03,-4.083191600551107879e-03,-3.785855849714578076e-03,-4.022804552489836483e-03,-4.809922044204380936e-03,-6.087665436875586839e-03,-7.730417278027256443e-03,-9.565241824738836621e-03,-1.139585981097784514e-02,-1.302824460824794119e-02,-1.429493407502405861e-02,-1.507492730403592156e-02,-1.530686378589383133e-02,-1.499466583966104286e-02,-1.420486373126930366e-02,-1.305498979553098432e-02,-1.169476053800013599e-02,-1.028384656339591426e-02,-8.969915884096336250e-03,-7.870501071811406013e-03,-7.062525845251931868e-03,-6.581029822129227068e-03,-6.424253564596296359e-03,-6.560400547888669415e-03,-6.933196887559129468e-03,-7.465906280893753154e-03,-8.065346281425217478e-03,-8.628145208458025406e-03,-9.049973285485377744e-03,-9.236449456592809443e-03,-9.114098076557759429e-03,-8.640159205131730732e-03,-7.810009770792799080e-03,-6.660694726529178822e-03,-5.268871503191260852e-03,-3.742456120538360884e-03,-2.208249589176948351e-03,-7.998799496151576434e-04,3.516885322233065077e-04,1.126378723244748307e-03,1.423672918436060452e-03,1.171481618986860724e-03,3.339351055612103198e-04,-1.083172906010821572e-03,-3.030835686795136340e-03,-5.420285969154426363e-03,-8.130548243075371925e-03,-1.101791901364016120e-02,-1.392650993054102282e-02,-1.670062272808724158e-02,-1.919896843221480243e-02,-2.130810262861426371e-02,-2.295066507020945487e-02,-2.408567767168626889e-02,-2.470264472544688589e-02,-2.481426183489766901e-02,-2.445150808401543030e-02,-2.366190427765810927e-02,-2.250964564601572529e-02,-2.107533285975234441e-02,-1.945304192002943883e-02,-1.774427902142751076e-02,-1.605067977895911421e-02,-1.446757667983255766e-02,-1.307909072216897374e-02,-1.195434282186725108e-02,-1.114412981035931352e-02,-1.067776726914324015e-02,-1.056104058387423959e-02,-1.077680235428698716e-02,-1.128820079411624842e-02,-1.204293913720468068e-02,-1.297752217623192143e-02,-1.402194127604047304e-02,-1.510604919630951018e-02,-1.616795621154993798e-02,-1.716176845286039240e-02,-1.806002486197489168e-02,-1.884897908023417529e-02,-1.951994018186427315e-02,-2.006145364073515930e-02,-2.045468252013675492e-02,-2.067226386351768766e-02,-2.068076703452242232e-02,-2.044637901865232685e-02,-1.994208637369936782e-02,-1.915481685239080537e-02,-1.809273043206333781e-02,-1.679273556134386336e-02,-1.532573485392416460e-02,-1.379591890403890179e-02,-1.233284258913130288e-02,-1.107854004773812899e-02,-1.017310914243451173e-02,-9.740532651662064251e-03,-9.874702127889649350e-03,-1.062615222426278871e-02,-1.199184809761949695e-02,-1.391086658210899905e-02,-1.626740414531863479e-02,-1.890032840398638003e-02,-2.161696487384873189e-02,-2.420935586965465916e-02,-2.647273174189641171e-02,-2.822533746134696028e-02,-2.932636964782409095e-02,-2.968831538559843844e-02,-2.928240322071386584e-02,-2.813843790698230402e-02,-2.634096834033095025e-02,-2.402260294044138503e-02,-2.135344494891858180e-02,-1.852498838194769487e-02,-1.572895479420501411e-02,-1.313546388047177882e-02,-1.087709989864084174e-02,-9.043272044166971932e-03,-7.683939334691880854e-03,-6.817208880389121796e-03,-6.435335848782240166e-03,-6.508040912546911826e-03,-6.985525863496457738e-03,-7.802856762709154889e-03,-8.885470797439863622e-03,-1.015463888720180737e-02,-1.153088191147413205e-02,-1.293420085358604026e-02,-1.428342807805184182e-02,-1.549834585899468632e-02,-1.650510176972128443e-02,-1.724276014299598939e-02,-1.766956770484803471e-02,-1.776846769124531406e-02,-1.755078765688168965e-02,-1.705687003496489038e-02,-1.635286803361750071e-02,-1.552278250502752734e-02,-1.465563048832415477e-02,-1.383053585030576821e-02,-1.310475191269926121e-02,-1.250861665424431342e-02,-1.204812206291796910e-02,-1.171259622393401589e-02,-1.148390041628396738e-02,-1.134449836546210476e-02,-1.128261732370667951e-02,-1.129295827204720472e-02,-1.137304914844676669e-02,-1.151794033430798489e-02,-1.171631142913474172e-02,-1.194904352027739182e-02,-1.219007716227693550e-02,-1.240989846075714852e-02,-1.258183755879127390e-02,-1.268940802071769416e-02,-1.273157002162098907e-02,-1.272379844343719812e-02,-1.269487479380477547e-02,-1.268091447277822602e-02,-1.271877955257574855e-02,-1.284060756489936034e-02,-1.307063834153276635e-02,-1.342511565138703421e-02,-1.391426320965696156e-02,-1.454306655414537575e-02,-1.530835919692205907e-02,-1.619310148115880865e-02,-1.716076215851054451e-02,-1.815240902892701833e-02,-1.908809310703209888e-02,-1.987301328612975371e-02,-2.040836476326261459e-02,-2.060652798664447047e-02,-2.040823521350616440e-02,-1.979617860186376130e-02,-1.879964470196143420e-02,-1.748891171251466120e-02,-1.596174952848049972e-02,-1.432542281930416876e-02,-1.267823497602673169e-02,-1.109500382734365624e-02,-9.619561786910481652e-03,-8.265464647986268953e-03,-7.024132439886901849e-03,-5.876499237490321985e-03,-4.802123527452034461e-03,-3.782475674269962333e-03,-2.800489585356333907e-03,-1.840466264290770496e-03,-8.906046035784045143e-04,5.165944320191084155e-05,9.729723010653274070e-04,1.839028733231713557e-03,2.594315044746441611e-03,3.168346840030645574e-03,3.487920118441088790e-03,3.492026748200354608e-03,3.144247622380279446e-03,2.439185382047492565e-03,1.403370687709604462e-03,9.304466567803106134e-05,-1.409494784688982479e-03,-3.000775696823916074e-03,-4.563301899516355141e-03,-5.976326319124233670e-03,-7.129831353977284653e-03,-7.938363967663163503e-03,-8.350311500560822844e-03,-8.350035357404366962e-03,-7.953379993422436331e-03,-7.199931313511378009e-03,-6.146376631924594519e-03,-4.863237028347456616e-03,-3.434335132715352328e-03,-1.957260879924017493e-03,-5.425862353303361222e-04,6.908906141073295438e-04,1.625800751777883163e-03,2.158997010912827239e-03,2.215687223430757007e-03,1.763921708203577271e-03,8.264288809432975133e-04,-5.158716055850739437e-04,-2.132741205027351497e-03,-3.864078818409768731e-03,-5.543148016081827188e-03,-7.016564588264898907e-03,-8.157623804285423982e-03,-8.873353510965830901e-03,-9.107662041624307175e-03,-8.843155448183913706e-03,-8.103063262139690789e-03,-6.952759079812549994e-03,-5.498731222536364094e-03,-3.882606956934112064e-03,-2.268949032543017032e-03,-8.273717641649506408e-04,2.880570443720655753e-04,9.568983620404250632e-04,1.103163837800639948e-03,6.979343521557903034e-04,-2.435938872833322126e-04,-1.667307903470260878e-03,-3.485686837776653599e-03,-5.583563267557349261e-03,-7.825292052554402855e-03,-1.006447311961497157e-02,-1.215656441121280504e-02,-1.397364592816182326e-02,-1.541891934040652556e-02,-1.643652283358106730e-02,-1.701243677377681229e-02,-1.716610296392474463e-02,-1.693677110180961606e-02,-1.637011339485509170e-02,-1.550962836718195251e-02,-1.439464410139433548e-02,-1.306292627461283842e-02,-1.155388757093920964e-02,-9.909967573738477295e-03,-8.176312376402476712e-03,-6.400092684831257261e-03,-4.631298681692738554e-03,-2.926133984108794054e-03,-1.351026355556336940e-03,1.708006504651336105e-05,1.096696973366955916e-03,1.813311462927141241e-03,2.114226870958745529e-03,1.983490140398798569e-03,1.452635368889343198e-03,6.035931010043994304e-04,-4.382049475791009946e-04,-1.520898712944844565e-03,-2.490843993892414947e-03,-3.218163194845261033e-03,-3.615493725316883816e-03,-3.645648480615863544e-03,-3.318354199859077126e-03,-2.678995255932572865e-03,-1.793208466802288141e-03,-7.305646198510765610e-04,4.501946097385202059e-04,1.711579222425624975e-03,3.040959845287526803e-03,4.447313286519703410e-03,5.953400858703964023e-03,7.586175163141590204e-03,9.368303969377066165e-03,1.131367218846555077e-02,1.342751580753172649e-02,1.570814951109276644e-02,1.814574138268909911e-02,2.071584647528641396e-02,2.336998163384088750e-02,2.602937705342936101e-02,2.858765559341769694e-02,3.092367664976768821e-02,3.292175866523466832e-02,3.449500885648434240e-02,3.560598636467129929e-02,3.627764456493085682e-02,3.659023652186895598e-02,3.666606983854047569e-02,3.664851548832941813e-02,3.668205729010735883e-02,3.689763604810276931e-02,3.740363748687348944e-02,3.828016972866347956e-02,3.957515655457101433e-02,4.130283718239893126e-02,4.344490333395947118e-02,4.595341547582594555e-02,4.875540422235751653e-02,5.175960430806807178e-02,5.486413436521916237e-02,5.796242940238675173e-02,6.094584079482584515e-02,6.370429550335639235e-02,6.612874854069765440e-02,6.811855952237035050e-02,6.959347537512615423e-02,7.050720220488083945e-02,7.085994303294003427e-02,7.070822897874223800e-02,7.016968579821861174e-02,6.941999483551310191e-02,6.868074954967776091e-02,6.819889864088152232e-02,6.822012857371460848e-02,6.895990753442547694e-02,7.057657833722980056e-02,7.315096160893325150e-02,7.667628108441185142e-02,8.105949745598545197e-02,8.613142111448988947e-02,9.166237092008738818e-02,9.738286560348670406e-02,1.030094916284428480e-01,1.082727577492297588e-01,1.129416113153715456e-01,1.168413469495135637e-01,1.198642235723036686e-01,1.219726394523272667e-01,1.231948756384401295e-01,1.236140873457492323e-01,1.233519533780135097e-01,1.225496548777623429e-01,1.213500047149334571e-01,1.198840344502111882e-01,1.182637758412900947e-01,1.165812083755450035e-01,1.149108669914267467e-01,1.133118187035440927e-01,1.118260966908595916e-01,1.104741314960252102e-01,1.092500935513579935e-01,1.081205625992415348e-01,1.070289302608732201e-01,1.059049523838343221e-01,1.046755336419891713e-01,1.032726753855744695e-01,1.016373150083795945e-01,9.972005069270971356e-02,9.748034715958980856e-02,9.488561999498541788e-02,9.191088961740960517e-02,8.853938429673260946e-02,8.476521046406457205e-02,8.059880400777438836e-02,7.607289225817555345e-02,7.124462943700039796e-02,6.619153466777480399e-02,6.100252238568814461e-02,5.576775767287048269e-02,5.057189456749406481e-02,4.549351872269539326e-02,4.060931568314320866e-02,3.599792785731932565e-02,3.173838227277281376e-02,2.790129161714193992e-02,2.453597969338991436e-02,2.165915020289295445e-02,1.924783623468582019e-02,1.723574475221724064e-02,1.551392280069828489e-02,1.394035536265826429e-02,1.236038846343451639e-02,1.063253327960487007e-02,8.651976708805408922e-03,6.368104515707200333e-03,3.794616193332945794e-03,1.009656390406893280e-03,-1.856478628518364472e-03,-4.645741797892975755e-03,-7.204225232739198438e-03,-9.412919431840941972e-03,-1.120885868135816643e-02,-1.259278174841201199e-02,-1.362382467409117316e-02,-1.440379873499050833e-02,-1.505510544265992873e-02,-1.569753435548189649e-02,-1.642890501484241955e-02,-1.731320992972927575e-02,-1.837786623582899140e-02,-1.961818040372394906e-02,-2.100412757327323882e-02,-2.248555133840001927e-02,-2.399593839902942199e-02,-2.545752733084613237e-02,-2.678970637857973000e-02,-2.791970118555804278e-02,-2.879188605663112951e-02,-2.937255167031703820e-02,-2.965075048641875599e-02,-2.963828454123953668e-02,-2.937001841930106383e-02,-2.890314030017467756e-02,-2.831416321574905040e-02,-2.769361033277799311e-02,-2.713895326713145276e-02,-2.674675152600265379e-02,-2.660409668393275487e-02,-2.677793485978167617e-02,-2.730194403707693687e-02,-2.816429507937057153e-02,-2.930113015743479252e-02,-3.059827676015182754e-02,-3.190102061814832635e-02,-3.303047007122920931e-02,-3.380359362539607504e-02,-3.405271022512634110e-02,-3.364070819285531339e-02,-3.246936142382884916e-02,-3.047921163774609116e-02,-2.764292739075480815e-02,-2.395830852952902587e-02,-1.944676701328148377e-02,-1.415790939710245486e-02,-8.175841734351063997e-03,-1.621722447312702858e-03,5.349431799358313894e-03,1.255390455236155348e-02,1.977983938815698617e-02,2.678073802364499059e-02,3.326756068937660599e-02,3.890968491904048254e-02,4.335175897741017775e-02,4.624518534536057462e-02,4.728607386157001463e-02,4.625104363260566787e-02,4.302674164104681315e-02,3.763185864633335903e-02,3.022956529744870793e-02,2.112725687093733318e-02,1.076101205055971476e-02,-3.356645799464365808e-04,-1.157408894045315259e-02,-2.235335276178885069e-02,-3.209390651224459240e-02,-4.025839479051422642e-02,-4.636364587607650495e-02,-4.998971361390960877e-02,-5.078848209141249154e-02,-4.849130511663290316e-02,-4.291681685789214273e-02,-3.398357978342056440e-02,-2.173206655613204794e-02,-6.355740830106400632e-03,1.176442152714452134e-02,3.203079199140190098e-02,5.361533229527551403e-02,7.547021232999583107e-02,9.636690249452156687e-02,1.149607118031046316e-01,1.298729454048365428e-01,1.397820212972192278e-01,1.435166160704676175e-01,1.401466084049520777e-01,1.290690176843578840e-01,1.100834568981235578e-01,8.344449614261571779e-02,4.987206944268194470e-02,1.050382141043794924e-02,-3.321216331186854775e-02,-7.966572850712982934e-02,-1.272407799511320325e-01,-1.744448655588651809e-01,-2.199911543071277065e-01,-2.628307587793727307e-01,-3.021475005263364322e-01,-3.373310888747688141e-01,-3.679402538238086273e-01,-3.936621419494051866e-01,-4.142734882695545684e-01,-4.296101771242138434e-01,-4.395506271819439870e-01,0.000000000000000000e+00,0.000000000000000000e+00,0.000000000000000000e+00,0.000000000000000000e+00,0.000000000000000000e+00,0.000000000000000000e+00,0.000000000000000000e+00,0.000000000000000000e+00,0.000000000000000000e+00,0.000000000000000000e+00,0.000000000000000000e+00,0.000000000000000000e+00,0.000000000000000000e+00,0.000000000000000000e+00,0.000000000000000000e+00,0.000000000000000000e+00,0.000000000000000000e+00,0.000000000000000000e+00,0.000000000000000000e+00,0.000000000000000000e+00,0.000000000000000000e+00,0.000000000000000000e+00,0.000000000000000000e+00,0.000000000000000000e+00,0.000000000000000000e+00,0.000000000000000000e+00,0.000000000000000000e+00,0.000000000000000000e+00,0.000000000000000000e+00,0.000000000000000000e+00,0.000000000000000000e+00,0.000000000000000000e+00,0.000000000000000000e+00,0.000000000000000000e+00,0.000000000000000000e+00,0.000000000000000000e+00
-4.440157233852475294e-01,-4.429858060313542345e-01,-4.365326658959696182e-01,-4.248604933077923529e-01,-4.083453287688870170e-01,-3.875598713239325477e-01,-3.632719304714584485e-01,-3.364110521512719276e-01,-3.080062278954973087e-01,-2.791053131009691435e-01,-2.506920906855172881e-01,-2.236165155121501991e-01,-1.985466609450653730e-01,-1.759431897836960523e-01,-1.560543252045442641e-01,-1.389297149412432320e-01,-1.244515744748282277e-01,-1.123798270801869142e-01,-1.024044780526420506e-01,-9.419527273453205674e-02,-8.744012501453005126e-02,-8.186975842997400166e-02,-7.727046775320212113e-02,-7.348715704838940099e-02,-7.041856869336789171e-02,-6.800744123920504647e-02,-6.622766191960548221e-02,-6.506892042642037355e-02,-6.451979405289723357e-02,-6.455154941163078475e-02,-6.510482596995334492e-02,-6.608095214739968803e-02,-6.734054205739421761e-02,-6.871225402316133435e-02,-7.001161785876677812e-02,-7.106454792173179380e-02,-7.172682172168352854e-02,-7.189369826645160277e-02,-7.150157836596884864e-02,-7.052853062815213347e-02,-6.899767359848042736e-02,-6.698105819962509033e-02,-6.459909998237418904e-02,-6.201276872166183729e-02,-5.940869042490765778e-02,-5.697915491091269657e-02,-5.490032307884522289e-02,-5.331232649021677011e-02,-5.230385583904413604e-02,-5.190219430980234916e-02,-5.206890762219150426e-02,-5.270231574445675971e-02,-5.364944672051138314e-02,-5.472889185455197258e-02,-5.576051323638728935e-02,-5.659356819115103632e-02,-5.712615379084525630e-02,-5.731303510737423279e-02,-5.716230061247591643e-02,-5.672448483208294978e-02,-5.607970372437576234e-02,-5.532606421561679644e-02,-5.456838554085736287e-02,-5.390508199447840293e-02,-5.341315873243877854e-02,-5.313394016324520658e-02,-5.306372068534955661e-02,-5.315238243698364173e-02,-5.330963045835639125e-02,-5.341702914939123331e-02,-5.334557585184415696e-02,-5.297853868094560409e-02,-5.223542184364264596e-02,-5.108916070133306953e-02,-4.956987279061361024e-02,-4.775463343929053917e-02,-4.574892640690058493e-02,-4.366726982925960010e-02,-4.161799693844536741e-02,-3.969340149413246033e-02,-3.796421232837192405e-02,-3.647699966776479785e-02,-3.525392256003222202e-02,-3.429559219164603212e-02,-3.358788720896527247e-02,-3.311090470332968272e-02,-3.284593542334179883e-02,-3.277820842370579579e-02,-3.289657988355305235e-02,-3.319162222849315197e-02,-3.365206894486599126e-02,-3.426001054661547557e-02,-3.498666572216705545e-02,-3.579030753098203649e-02,-3.661667128983111391e-02,-3.740188909589779037e-02,-3.807852836166619043e-02,-3.858512315436737200e-02,-3.887799609984066845e-02,-3.894202971446500405e-02,-3.879622004848074651e-02,-3.849128139912723345e-02,-3.809904397541240273e-02,-3.769590708940565721e-02,-3.734527018876906274e-02,-3.708492615568079881e-02,-3.692277714367321606e-02,-3.683988159569560189e-02,-3.679772559273811194e-02,-3.674723353514020713e-02,-3.663792373832903265e-02,-3.642589754197426977e-02,-3.607966029046027340e-02,-3.558277102421027183e-02,-3.493248480568014736e-02,-3.413561823840219334e-02,-3.320539422777161326e-02,-3.216193453930495799e-02,-3.103456989820762776e-02,-2.986160712879203788e-02,-2.868579393499825700e-02,-2.754823916726962391e-02,-2.648477729970646899e-02,-2.552578580644052422e-02,-2.469737372185917129e-02,-2.402217826534797096e-02,-2.351967894133755177e-02,-2.320541720399757132e-02,-2.308756829511011618e-02,-2.316108479159821598e-02,-2.340202419017796409e-02,-2.376469340436417055e-02,-2.418266573027576943e-02,-2.457290236934269595e-02,-2.484104671067840012e-02,-2.488707773365641043e-02,-2.461303390248284484e-02,-2.393477310996523777e-02,-2.279694751722681142e-02,-2.118740136678804939e-02,-1.914572570109024721e-02,-1.676115535921485905e-02,-1.415864479095958056e-02,-1.147756864792433273e-02,-8.849788840492103792e-03,-6.381142065301755560e-03,-4.138023071243501771e-03,-2.141313647012814576e-03,-3.695208609724840343e-04,1.229867003814365430e-03,2.724091169366400344e-03,4.177933613474867254e-03,5.639922598658761790e-03,7.135659384335441870e-03,8.670201895852248930e-03,1.023881164362612506e-02,1.184163485883452799e-02,1.349393902927606935e-02,1.522364682600351946e-02,1.705504893130375954e-02,1.898740866194994006e-02,2.098174095657320826e-02,2.296473704471904340e-02,2.484882794711735024e-02,2.655917731773619131e-02,2.805702657452213006e-02,2.935212905547332149e-02,3.050103108667397492e-02,3.159286048876838726e-02,3.272947367139766167e-02,3.400775333869938966e-02,3.550778944328961823e-02,3.728682051144815296e-02,3.937763240912783153e-02,4.178969398504055188e-02,4.451134809686557725e-02,4.751260798377354017e-02,5.074887098593629242e-02,5.416478644056354347e-02,5.769655898351139928e-02,6.127198018045248301e-02,6.480912921000467342e-02,6.821599038897742384e-02,7.139458606391524409e-02,7.425232224845060292e-02,7.671828613566758492e-02,7.875773879310682402e-02,8.037920716456549430e-02,8.163343482379506466e-02,8.260667149049850944e-02,8.341076550148922297e-02,8.417115603393661438e-02,8.501324617101080339e-02,8.604849815317539008e-02,8.736257660224548693e-02,8.900740919456325007e-02,9.099780359261321061e-02,9.331224199290728827e-02,9.589657318705155364e-02,9.866942256375896281e-02,1.015295959662435715e-01,1.043664765294099739e-01,1.070734627508375253e-01,1.095628695094864463e-01,1.117788818295749470e-01,1.137046141172268349e-01,1.153619536484855462e-01,1.168062693061696911e-01,1.181181295222146488e-01,1.193920064406665815e-01,1.207219168779957302e-01,1.221862797384427740e-01,1.238353511434876764e-01,1.256832375910125199e-01,1.277047797899772130e-01,1.298367269893090092e-01,1.319820826096273769e-01,1.340166145199113423e-01,1.357977649918267748e-01,1.371770065684074225e-01,1.380155571202487108e-01,1.382016180833147423e-01,1.376666485739852230e-01,1.363981885733880628e-01,1.344467905991768852e-01,1.319250614711012792e-01,1.289979900764597898e-01,1.258657949573729340e-01,1.227424538490640704e-01,1.198331796193542603e-01,1.173131333819674438e-01,1.153097422418827706e-01,1.138916034461332077e-01,1.130660300669711349e-01,1.127847457970820727e-01,1.129546587015289733e-01,1.134493716482332937e-01,1.141182591144946357e-01,1.147935072825319730e-01,1.152983567220199762e-01,1.154591761598975502e-01,1.151217164814139216e-01,1.141700322532670370e-01,1.125441355813936450e-01,1.102506193279945562e-01,1.073628334829538483e-01,1.040120692673904695e-01,1.003730156523946204e-01,9.664502940893845984e-02,9.302974325626169050e-02,8.970675612686351830e-02,8.681071832424619439e-02,8.441395769027572327e-02,8.251879921736017531e-02,8.106212856626544838e-02,7.993153362373670023e-02,7.898910661435208647e-02,7.809684749424380956e-02,7.713713479267719775e-02,7.602398625723677528e-02,7.470536399393722105e-02,7.316013670433771376e-02,7.139285657247231021e-02,6.942710520706429911e-02,6.729749126443769491e-02,6.504198893418706995e-02,6.269726676534428944e-02,6.029783742101182259e-02,5.787710296896924483e-02,5.546783493515761165e-02,5.310130109321959530e-02,5.080578959886036805e-02,4.860573231478199085e-02,4.652260473011579633e-02,4.457791371555811649e-02,4.279609213154577513e-02,4.120321157326253814e-02,3.981947532672746454e-02,3.864833732692286861e-02,3.766836127283309382e-02,3.683324395371299215e-02,3.608140672307658114e-02,3.535155277371188759e-02,3.459778488270930097e-02,3.379868760560220814e-02,3.295774711951691971e-02,3.209581511562075579e-02,3.123900858729634217e-02,3.040657189622292256e-02,2.960269908752639553e-02,2.881451714664853489e-02,2.801545304907512510e-02,2.717065242892130819e-02,2.624163072351271692e-02,2.518999846669257164e-02,2.398095995316616019e-02,2.258609957724163828e-02,2.098532786951952389e-02,1.916948577677464460e-02,1.714430001453934316e-02,1.493404827245380095e-02,1.258300413361730999e-02,1.015370161703081468e-02,7.721398212403930358e-03,5.365129723699617326e-03,3.157760798865156225e-03,1.158049274892320249e-03,-5.934782675495973167e-04,-2.074076159100422725e-03,-3.273872271002896059e-03,-4.188710435551713622e-03,-4.814570122365583599e-03,-5.146146440221484146e-03,-5.179362167802477497e-03,-4.915859972325803927e-03,-4.367685689788653770e-03,-3.561800514157376779e-03,-2.544803421483467915e-03,-1.386900060600179327e-03,-1.828511682272920022e-04,9.516420991590049481e-04,1.888739099881347723e-03,2.502861314638781497e-03,2.689487451234319829e-03,2.383872105982261583e-03,1.573151858935927872e-03,2.968926127734413528e-04,-1.363768742326806590e-03,-3.303000233157794667e-03,-5.406622048818671145e-03,-7.564432402761904831e-03,-9.678271121624493906e-03,-1.166638745571919357e-02,-1.346405474363554337e-02,-1.502044031376234892e-02,-1.629366508789122786e-02,-1.724872198353438399e-02,-1.786279409439054527e-02,-1.813704700566986724e-02,-1.810706082293513097e-02,-1.784330049324967665e-02,-1.743979005259671186e-02,-1.699664382361602832e-02,-1.660440230174665618e-02,-1.633498232788546320e-02,-1.623833387310874565e-02,-1.634039412006442482e-02,-1.664013930762459764e-02,-1.710793401764216376e-02,-1.768778517016579566e-02,-1.830350653036267802e-02,-1.886816847127738631e-02,-1.929701617086269222e-02,-1.952285078415275099e-02,-1.951027542841863444e-02,-1.926388017872405350e-02,-1.882672272427550475e-02,-1.826939471660650807e-02,-1.767415125508704429e-02,-1.711951663805347940e-02,-1.666873317088539072e-02,-1.636362927487211572e-02,-1.622449240898371156e-02,-1.625481450203748734e-02,-1.644822477613777645e-02,-1.679520674612310083e-02,-1.728852465401505695e-02,-1.792696462760811835e-02,-1.871624010221468321e-02,-1.966464544408284137e-02,-2.077225431439314735e-02,-2.201723732029023037e-02,-2.334676997826453521e-02,-2.467798087814212019e-02,-2.590818246773756231e-02,-2.692983156957516264e-02,-2.764666656566175731e-02,-2.798921807799132841e-02,-2.792769598119747634e-02,-2.747964358876795604e-02,-2.670973440474637417e-02,-2.572010296122302989e-02,-2.463264025943692412e-02,-2.356812609926319316e-02,-2.262791107727037121e-02,-2.188192635859457363e-02,-2.136377178480530423e-02,-2.107104527640352859e-02,-2.096861896399920475e-02,-2.099454589535630286e-02,-2.106985309949217788e-02,-2.111216142009111549e-02,-2.105062901281543747e-02,-2.083877985735024460e-02,-2.046210175819096130e-02,-1.993843485714478017e-02,-1.931172106332009961e-02,-1.864215055179022432e-02,-1.799570038474479147e-02,-1.743442576173566058e-02,-1.700822955501129011e-02,-1.674928457158079628e-02,-1.667023624750351221e-02,-1.676614561366684963e-02,-1.701839272140160536e-02,-1.739786879631163158e-02,-1.786616383388129822e-02,-1.837628932529331016e-02,-1.887585506599318355e-02,-1.931405747276850049e-02,-1.965074023631549482e-02,-1.986350302625576256e-02,-1.994909887373090551e-02,-1.991837602518228140e-02,-1.978770965024515341e-02,-1.957158222081621657e-02,-1.927993017034822232e-02,-1.892100381381212754e-02,-1.850746113870182022e-02,-1.806232228465275494e-02,-1.762269531209488538e-02,-1.724042168820143217e-02,-1.697866146195944892e-02,-1.690421962601698289e-02,-1.707792251529943045e-02,-1.754626105641137607e-02,-1.833530862918425139e-02,-1.944588458648487464e-02,-2.084955686312206166e-02,-2.248688879484852729e-02,-2.427032760634779268e-02,-2.609333762635286311e-02,-2.784436278914195415e-02,-2.942092283659234961e-02,-3.073900288815188675e-02,-3.173597936904624245e-02,-3.236876596655526711e-02,-3.261090981657934623e-02,-3.245220901938401098e-02,-3.190151238290725444e-02,-3.098996257952717215e-02,-2.977124718138628862e-02,-2.831676775984435721e-02,-2.670548510702212830e-02,-2.501143927902877220e-02,-2.329454419986760547e-02,-2.159779871061227874e-02,-1.994896380690552515e-02,-1.836368687847154263e-02,-1.684968205398746158e-02,-1.541247540683488536e-02,-1.406166611483241659e-02,-1.281610179556848597e-02,-1.170731704155917631e-02,-1.078072000987172555e-02,-1.009319109090691356e-02,-9.705561868583921503e-03,-9.669774468955845415e-03,-1.001369239464382395e-02,-1.072949901529578545e-02,-1.177066952411585932e-02,-1.305794815547489142e-02,-1.449072349793735504e-02,-1.595909875888258667e-02,-1.735380954887538046e-02,-1.857444124757788237e-02,-1.953774883378289751e-02,-2.018570193739353466e-02,-2.049055835204069420e-02,-2.045516579121361631e-02,-2.010916544566774058e-02,-1.950299710536973485e-02,-1.870177410108497112e-02,-1.778077941669434225e-02,-1.682284083845763528e-02,-1.591604298877591361e-02,-1.514996779113493390e-02,-1.460970855995101167e-02,-1.436816078730149097e-02,-1.447803514412178590e-02,-1.496506781346671443e-02,-1.582308973450204451e-02,-1.701118581369383959e-02,-1.845375911455323509e-02,-2.004478991699543827e-02,-2.165651591129607451e-02,-2.315079451688544995e-02,-2.439059821511120260e-02,-2.524995928011291441e-02,-2.562224149456476807e-02,-2.542817386180436928e-02,-2.462538065829167344e-02,-2.321872252697545005e-02,-2.126734355204185425e-02,-1.888371129551619926e-02,-1.622278063518377625e-02,-1.346290894527176277e-02,-1.078210349149713934e-02,-8.333889858502909961e-03,-6.227911394330834516e-03,-4.520407824231363440e-03,-3.215927226281569372e-03,-2.275463995182274400e-03,-1.625095487556532702e-03,-1.164936988456210425e-03,-7.823480326301878156e-04,-3.704009777510219154e-04,1.525661610796485643e-04,8.284977827221914025e-04,1.654527535321686105e-03,2.587241675179366082e-03,3.552956368828326730e-03,4.460181552270564911e-03,5.210956888730865905e-03,5.708683874621008417e-03,5.863319605029628477e-03,5.597931691490557957e-03,4.858840646146013117e-03,3.626650345497622625e-03,1.923720483579052527e-03,-1.835784983018128947e-04,-2.586756513285753262e-03,-5.140636392748811415e-03,-7.673743001758986416e-03,-1.000543941459924868e-02,-1.196867242950605710e-02,-1.343268426756108296e-02,-1.431858134833304159e-02,-1.460411675778484214e-02,-1.431886411839759093e-02,-1.353354286405725020e-02,-1.234772709095988824e-02,-1.087928731960271025e-02,-9.256318855130309803e-03,-7.609426477231518056e-03,-6.062053456459935361e-03,-4.719185756710097233e-03,-3.657609673568723400e-03,-2.921946468421265670e-03,-2.528527437127376862e-03,-2.474249901997180052e-03,-2.744393401077492751e-03,-3.315422878004541628e-03,-4.153291484337615080e-03,-5.210652550458549914e-03,-6.426853439458517052e-03,-7.732436613173073597e-03,-9.056022764451195431e-03,-1.032981507008150397e-02,-1.149276500562932887e-02,-1.249413337852333869e-02,-1.329993498432516588e-02,-1.390058710574160368e-02,-1.431454062561401432e-02,-1.458400442757998641e-02,-1.476459428206348262e-02,-1.491499195343857012e-02,-1.509047881364270101e-02,-1.533884004968614177e-02,-1.569584363578560918e-02,-1.618010291320466296e-02,-1.678820578859421472e-02,-1.749028901394318256e-02,-1.822689586518547872e-02,-1.890925750649034495e-02,-1.942489770680840000e-02,-1.964927663268322203e-02,-1.946301742382929370e-02,-1.877279068435987880e-02,-1.753247220986559399e-02,-1.576009563061621030e-02,-1.354521759082964044e-02,-1.104207857068464048e-02,-8.447964077395129015e-03,-5.971427028415316612e-03,-3.798559018542658258e-03,-2.066574240828863204e-03,-8.514920729127537684e-04,-1.703070843900855442e-04,7.834182522403624130e-06,-2.520273727217437593e-04,-8.625336269309424528e-04,-1.722580922185522204e-03,-2.723850833221726307e-03,-3.757828537827806979e-03,-4.724032518879223846e-03,-5.537463104952434177e-03,-6.132977151719617298e-03,-6.466435653333326219e-03,-6.514489186785068359e-03,-6.274874670536591259e-03,-5.767367332373443678e-03,-5.033593783999199163e-03,-4.133571718143977392e-03,-3.139041657937920258e-03,-2.126271481811807355e-03,-1.170726734181055332e-03,-3.433485463794780043e-04,2.935684698628346400e-04,6.922139208348614950e-04,8.255474070645432488e-04,6.907873066486180632e-04,3.083394898879747263e-04,-2.825543011776264230e-04,-1.029957744156921595e-03,-1.876961208038373762e-03,-2.769446410695394854e-03,-3.660335172971932588e-03,-4.508349943656758674e-03,-5.273046317756391495e-03,-5.909698552296654278e-03,-6.367320020044609299e-03,-6.591998080997336397e-03,-6.535316674160971187e-03,-6.164713816624881049e-03,-5.472021360163187124e-03,-4.478141149236697371e-03,-3.232963440196247665e-03,-1.809724221389709484e-03,-2.936255591225309298e-04,1.233871794039939369e-03,2.711538291453524825e-03,4.110325592042566624e-03,5.435928600002408462e-03,6.720786003169583814e-03,8.009389543076018622e-03,9.343915196165059403e-03,1.075650389522151557e-02,1.227028828085786200e-02,1.390560572479859411e-02,1.568452004968804922e-02,1.762846700942769310e-02,1.974893933881368552e-02,2.203576518393386002e-02,2.444944208106199918e-02,2.692293731313115043e-02,2.937485501976535782e-02,3.173062005166727567e-02,3.394335487113026018e-02,3.600547330448633510e-02,3.794760905799950818e-02,3.982869255457125585e-02,4.172333715030935447e-02,4.370994443320169037e-02,4.585980608427666499e-02,4.822671738130064611e-02,5.083732041878307600e-02,5.368327612704242024e-02,5.671709017533139996e-02,5.985341074162496555e-02,6.297646665699715984e-02,6.595293868785689906e-02,6.864854716611386298e-02,7.094567959274598878e-02,7.275951789200703346e-02,7.405175659667348476e-02,7.484098058917457164e-02,7.520581711776425093e-02,7.527584994517858008e-02,7.520976600336017059e-02,7.516711968128222954e-02,7.528349979589235574e-02,7.565614484376873006e-02,7.634093178130989255e-02,7.735764627800656434e-02,7.870020811353051204e-02,8.034890167382253978e-02,8.228123448464477740e-02,8.447828789782414749e-02,8.692435522404770576e-02,8.959903504494223792e-02,9.246388775419792094e-02,9.544938373648188812e-02,9.844900246794012488e-02,1.013249203827485401e-01,1.039255450716169843e-01,1.061105848259370904e-01,1.077756527558780819e-01,1.088687252681790618e-01,1.093957526009648185e-01,1.094172760451799231e-01,1.090383314407720738e-01,1.083929453192494646e-01,1.076250622706032556e-01,1.068686867358231013e-01,1.062305972735554799e-01,1.057796251295196888e-01,1.055453514772056872e-01,1.055249145064206528e-01,1.056929941261407074e-01,1.060103033635057812e-01,1.064284872888967004e-01,1.068920742412662189e-01,1.073399544063293048e-01,1.077074547345245742e-01,1.079265439855307679e-01,1.079220588077636073e-01,1.076071683330379614e-01,1.068848798987562382e-01,1.056596681366300250e-01,1.038568390646155554e-01,1.014423332527151222e-01,9.843554024058961960e-02,9.491115836100309788e-02,9.098966246005175951e-02,8.681825280960936420e-02,8.254619614127006733e-02,7.830029636891601419e-02,7.416667129040663275e-02,7.018306708034718899e-02,6.634218066149163984e-02,6.260303932470437371e-02,5.890605915889004368e-02,5.518785095046904732e-02,5.139298892212178921e-02,4.748102968780192057e-02,4.342859610530042103e-02,3.922848204175723857e-02,3.488866154706483230e-02,3.043243490280034963e-02,2.589849880252202696e-02,2.133913111022511452e-02,1.681591308501642623e-02,1.239398762748659434e-02,8.137090060880775716e-03,4.105612838736097739e-03,3.579942176665342531e-04,-3.046764524556569171e-03,-6.048355639154918278e-03,-8.587755582675443353e-03,-1.061262702731137660e-02,-1.208376465787360313e-02,-1.298126756199214846e-02,-1.331003859173217167e-02,-1.310396215898520372e-02,-1.242752504301693380e-02,-1.137399319540189843e-02,-1.005994877993876026e-02,-8.616877706476424453e-03,-7.181954730204368267e-03,-5.890274818261075247e-03,-4.868024474260847917e-03,-4.223771362704937561e-03,-4.036980583801660569e-03,-4.346770921734084692e-03,-5.145041441601628032e-03,-6.376334594855062772e-03,-7.944722374804605303e-03,-9.726217371868552120e-03,-1.158425526479101193e-02,-1.338679840688806674e-02,-1.502473739194423903e-02,-1.642956160576001384e-02,-1.758534943257129488e-02,-1.853037515398880605e-02,-1.934763263089349025e-02,-2.014798469442793949e-02,-2.105127290335631618e-02,-2.216855354044288198e-02,-2.358549142040014882e-02,-2.534738445899610212e-02,-2.744894033959887139e-02,-2.983106440909584489e-02,-3.238330202312051515e-02,-3.494950220450995099e-02,-3.733544674516381390e-02,-3.931803485055970770e-02,-4.065713533979549432e-02,-4.111278588378333709e-02,-4.046874546635968739e-02,-3.855938771703899814e-02,-3.529435819103298594e-02,-3.067489715430758365e-02,-2.479680312433728620e-02,-1.783937406768626791e-02,-1.004577650603181473e-02,-1.701929311553643590e-03,6.883123734192911868e-03,1.539579474417063741e-02,2.353455509412981372e-02,3.102081677422907982e-02,3.760091377838586241e-02,4.304021665966883958e-02,4.711505297396566955e-02,4.961021106368323358e-02,5.032781985108102790e-02,4.910836589213252862e-02,4.585972373166399135e-02,4.058686719205668175e-02,3.341380716574506027e-02,2.459133899885582869e-02,1.448797733893910505e-02,3.564929256726219377e-03,-7.659645703817607142e-03,-1.864755547120918941e-02,-2.887002315564233743e-02,-3.782693118710517971e-02,-4.505831656697339288e-02,-5.015201787166526093e-02,-5.274996258215747247e-02,-5.255399978177723030e-02,-4.933344404218240747e-02,-4.293899707951923800e-02,-3.332647961341156373e-02,-2.058871206218779865e-02,-4.989118655454514301e-03,1.301162260244340813e-02,3.274377145722559557e-02,5.333556440431590911e-02,7.373877887459827363e-02,9.277060104946861785e-02,1.091693064141003588e-01,1.216611985320299877e-01,1.290371443154446629e-01,1.302379078380081212e-01,1.244450804184950160e-01,1.111693556525593790e-01,9.032372061977639310e-02,6.226604270788403672e-02,2.779418697973277258e-02,-1.191706948929103366e-02,-5.543182653956545136e-02,-1.011974970557813214e-01,-1.476846786612796558e-01,-1.934947462539029772e-01,-2.374233635867364633e-01,-2.784845340118921042e-01,-3.159077643311260508e-01,-3.491188346546735266e-01,-3.777096413893995530e-01,-4.014020187263575568e-01,-4.200130065138593660e-01,-4.334290747852906911e-01,-4.415937118843931697e-01,0.000000000000000000e+00,0.000000000000000000e+00,0.000000000000000000e+00,0.000000000000000000e+00,0.000000000000000000e+00,0.000000000000000000e+00,0.000000000000000000e+00,0.000000000000000000e+00,0.000000000000000000e+00,0.000000000000000000e+00,0.000000000000000000e+00,0.000000000000000000e+00,0.000000000000000000e+00,0.000000000000000000e+00,0.000000000000000000e+00,0.000000000000000000e+00,0.000000000000000000e+00,0.000000000000000000e+00,0.000000000000000000e+00,0.000000000000000000e+00,0.000000000000000000e+00,0.000000000000000000e+00,0.000000000000000000e+00,0.000000000000000000e+00,0.000000000000000000e+00,0.000000000000000000e+00,0.000000000000000000e+00,0.000000000000000000e+00,0.000000000000000000e+00,0.000000000000000000e+00
