2.257986814760845617e-01,2.199643473012219130e-01,2.075997607576127446e-01,1.895419612532937281e-01,1.669985746967712070e-01,1.414404302599129304e-01,1.144703798789612897e-01,8.768519180831688131e-02,6.254289782512466311e-02,4.024639600043475318e-02,2.165613746418519961e-02,7.244789786688435491e-03,-2.899255998794666219e-03,-9.022772606565861858e-03,-1.162490011216663760e-02,-1.135664564009887002e-02,-8.918925198312685140e-03,-4.973594571706186317e-03,-7.853182720480791782e-05,5.346658596193711380e-03,1.102271432127964641e-02,1.678496888988361205e-02,2.254078727249769071e-02,2.822452025656512972e-02,3.376215288849415685e-02,3.905293857602811641e-02,4.397011943444817383e-02,4.837663398460873704e-02,5.214610306827709846e-02,5.517904427022155694e-02,5.740997702382687196e-02,5.880756255752522810e-02,5.937206378884551938e-02,5.913225493712512965e-02,5.814102098190236656e-02,5.646828650024025148e-02,5.419180227861645355e-02,5.138839769309639510e-02,4.812859766065186867e-02,4.447630059387018553e-02,4.049351405357220351e-02,3.624826687715024254e-02,3.182239960355596337e-02,2.731600471730241675e-02,2.284694633716161105e-02,1.854592657076646958e-02,1.454827745963771339e-02,1.098293412586253022e-02,7.959075703500193347e-03,5.552569318656421817e-03,3.795418895238719149e-03,2.670558370012563951e-03,2.112753225577711225e-03,2.015229241726230070e-03,2.240949257213384165e-03,2.636917381372790026e-03,3.049509523839980668e-03,3.339097128789251471e-03,3.393079639754500911e-03,3.136609840551858423e-03,2.539246661555135971e-03,1.615113747748673579e-03,4.156456545747950516e-04,-9.830390384558376944e-04,-2.494228322046881160e-03,-4.032720126523932011e-03,-5.523232339455013892e-03,-6.905168320042389014e-03,-8.134916991160763555e-03,-9.186941831087787683e-03,-1.005422724313108016e-02,-1.074798777993321748e-02,-1.129617109485268195e-02,-1.174025565925823633e-02,-1.213038374461601447e-02,-1.251969355266228066e-02,-1.295898228994742107e-02,-1.349221647194466002e-02,-1.415258159895683120e-02,-1.495871366386909707e-02,-1.591167434865937286e-02,-1.699407288009144659e-02,-1.817236858452506501e-02,-1.940192977211510628e-02,-2.063276068981271041e-02,-2.181310809802503720e-02,-2.288986418749048082e-02,-2.380815300236218193e-02,-2.451392793407768805e-02,-2.496081097408994753e-02,-2.511884436367543480e-02,-2.498158550765576524e-02,-2.456863431823668939e-02,-2.392224693518236675e-02,-2.309943096051747177e-02,-2.216355536205548080e-02,-2.117933641966171510e-02,-2.021185662047933485e-02,-1.932695852907097972e-02,-1.858961140921390476e-02,-1.805875461253530351e-02,-1.777977365209523417e-02,-1.777722101318274933e-02,-1.805004439318497189e-02,-1.857008767187578666e-02,-1.928331884168466362e-02,-2.011329516626948755e-02,-2.096723286471923603e-02,-2.174493403430505928e-02,-2.234968139308747895e-02,-2.269937854883330094e-02,-2.273596371794410140e-02,-2.243113640180590534e-02,-2.178706359827600747e-02,-2.083252583673910266e-02,-1.961715855696280139e-02,-1.820667109303324149e-02,-1.667941948890768605e-02,-1.512243800939092921e-02,-1.362564752458242899e-02,-1.227486146533415465e-02,-1.114469543332249381e-02,-1.029192508907577144e-02,-9.749853747143532104e-03,-9.524464560134657254e-03,-9.592411205907406049e-03,-9.900164130882111932e-03,-1.036443010092629943e-02,-1.087528941582345879e-02,-1.130339681578697297e-02,-1.151139195485775812e-02,-1.136861730577478150e-02,-1.076746967214423090e-02,-9.639193005786502247e-03,-7.967081209624794075e-03,-5.795438081700795413e-03,-3.232208822846356893e-03,-4.426336246347035010e-04,2.367664331139182708e-03,4.978986263489552574e-03,7.188971353236957643e-03,8.842461752214687484e-03,9.852773744108006548e-03,1.020976324368142070e-02,9.974272238877304395e-03,9.262562915207031913e-03,8.226646710946378810e-03,7.035736974387821197e-03,5.860962206511357436e-03,4.862615669748986992e-03,4.178410774230994877e-03,3.912312475243585191e-03,4.125237475592733946e-03,4.829826179391170059e-03,5.990986838140700300e-03,7.532184728031118826e-03,9.345652480248416855e-03,1.130455294864432178e-02,1.327630790370572939e-02,1.513656690954875809e-02,1.678224838201872529e-02,1.814152180164156289e-02,1.917912070761560936e-02,1.989617886133972224e-02,2.032495544356235917e-02,2.052057648566674511e-02,2.055267877119941813e-02,2.049833052078236725e-02,2.043566956115607305e-02,2.043771620327789612e-02,2.056688646766022255e-02,2.087074558838955193e-02,2.137898742010692354e-02,2.210193669770139924e-02,2.303128318476980324e-02,2.414301892302120334e-02,2.540154035235887495e-02,2.676411500674764563e-02,2.818610021484625056e-02,2.962760967578793522e-02,3.106078722243097237e-02,3.247481734431553746e-02,3.387550071306673349e-02,3.527858961705766794e-02,3.669993858939149534e-02,3.814785458364967213e-02,3.962131328720261414e-02,4.111323947483928182e-02,4.261498760220504972e-02,4.411861005345057984e-02,4.561604652682580557e-02,4.709681598572246219e-02,4.854675333956684491e-02,4.994947318194173369e-02,5.129016724558727730e-02,5.255917474175428317e-02,5.375238832560920443e-02,5.486798623873066771e-02,5.590203407212640530e-02,5.684611138426274440e-02,5.768810876496785478e-02,5.841505200214675703e-02,5.901621289576867990e-02,5.948576582935070911e-02,5.982541365641395881e-02,6.004750592039652390e-02,6.017807733250959273e-02,6.025810932489964605e-02,6.034126284078520502e-02,6.048730643244246141e-02,6.075226100786198374e-02,6.117803123875584226e-02,6.178407916278327167e-02,6.256190867010016921e-02,6.347238935009615057e-02,6.444632859768444078e-02,6.538855674392811401e-02,6.618565206623309993e-02,6.671798822588663469e-02,6.687647386838102559e-02,6.658207640156332818e-02,6.580343014181801176e-02,6.456697139832273669e-02,6.295633966467711895e-02,6.110199220071676346e-02,5.916501879489110410e-02,5.731894336354077801e-02,5.573101445037238061e-02,5.454311327837307183e-02,5.385349451055154724e-02,5.370279474502612921e-02,5.406839544895238048e-02,5.486904333185139981e-02,5.597805315132815818e-02,5.724087071159435214e-02,5.849249929030794076e-02,5.957202965688161711e-02,6.033391156107499598e-02,6.065698914140457698e-02,6.045196760327324614e-02,5.966663380223522634e-02,5.828747474304978721e-02,5.633749396306992480e-02,5.387210692749234281e-02,5.097558253377043602e-02,4.775869058255237387e-02,4.435583800210612937e-02,4.091911330677316244e-02,3.760768797533702024e-02,3.457323195424778783e-02,3.194419384890345021e-02,2.981249588057570746e-02,2.822498649555371664e-02,2.718023222236488554e-02,2.663020039815116452e-02,2.648598577159730350e-02,2.662668901515104561e-02,2.691094142796891103e-02,2.719078449165792874e-02,2.732673479020462926e-02,2.720138622600519127e-02,2.672872609882812403e-02,2.585833125899076462e-02,2.457611613823318733e-02,2.290392498613907576e-02,2.089846712360336409e-02,1.864792017900668286e-02,1.626446825285185818e-02,1.387309448195642170e-02,1.159878719934495823e-02,9.554440881411031816e-03,7.830815838017653185e-03,6.489098366535698929e-03,5.556130399918869991e-03,5.022275170744437342e-03,4.842268495757145672e-03,4.939684153007627143e-03,5.215032468697002738e-03,5.556542641354784637e-03,5.852191211327853297e-03,6.001120751731395427e-03,5.922235935350884939e-03,5.558605876526189621e-03,4.878152802514852497e-03,3.872376671055176127e-03,2.554927883490752585e-03,9.608735310981782402e-04,-8.542872735040825697e-04,-2.818077985735397382e-03,-4.848204899806012741e-03,-6.862148204426213143e-03,-8.786633537577919970e-03,-1.056535849165742696e-02,-1.216471569328169897e-02,-1.357768249775921469e-02,-1.482590559138917408e-02,-1.595956298078806887e-02,-1.705369180199154885e-02,-1.819936862107818937e-02,-1.948973014766633774e-02,-2.100348355239952183e-02,-2.278997911686557465e-02,-2.485927165942613745e-02,-2.717906744050202841e-02,-2.967898218196930379e-02,-3.226080246651754496e-02,-3.481179320785116049e-02,-3.721819087132934717e-02,-3.937783337284175150e-02,-4.121195132156954544e-02,-4.267540466201010657e-02,-4.376343741592336051e-02,-4.451267588883801168e-02,-4.499527495636175545e-02,-4.530760542234150284e-02,-4.555694103705886649e-02,-4.584937890047152687e-02,-4.627989789575581714e-02,-4.692353078976693737e-02,-4.782732056314929758e-02,-4.900506405224335643e-02,-5.043763645509781457e-02,-5.207955087387642484e-02,-5.386934924948972442e-02,-5.574016755820591917e-02,-5.762784384367072160e-02,-5.947590010441197034e-02,-6.123808813289143005e-02,-6.287904675625712037e-02,-6.437267041027944225e-02,-6.569775797058190203e-02,-6.683185805397535983e-02,-6.774560795847596462e-02,-6.839999652915852713e-02,-6.874819897875315833e-02,-6.874275811161413563e-02,-6.834756423228074973e-02,-6.755196288211427758e-02,-6.638261315271752616e-02,-6.490901826312589495e-02,-6.324078222557694140e-02,-6.151667054900288728e-02,-5.988631928194384363e-02,-5.848625755719773917e-02,-5.741430162032869211e-02,-5.670898445942244848e-02,-5.634046182213536119e-02,-5.621559732717041485e-02,-5.619532989795412992e-02,-5.611979562020685125e-02,-5.583623685476937076e-02,-5.522488189847806622e-02,-5.421812834588283364e-02,-5.280963061461767249e-02,-5.105260799250498777e-02,-4.904924016526418518e-02,-4.693407983345862511e-02,-4.485450608178873089e-02,-4.295122605467645294e-02,-4.134148259742062570e-02,-4.010685957971812932e-02,-3.928702564265343367e-02,-3.888010824863346454e-02,-3.884883025165154768e-02,-3.912966817924130869e-02,-3.964163201450703750e-02,-4.029280241995835538e-02,-4.098564232620673098e-02,-4.162354393280006531e-02,-4.211950823912553182e-02,-4.240514279321270369e-02,-4.243706932745350963e-02,-4.219908472439743569e-02,-4.170058471260074812e-02,-4.097292530749919309e-02,-4.006509619712705222e-02,-3.903913201104129704e-02,-3.796485997073894419e-02,-3.691346138182437231e-02,-3.595010059913550382e-02,-3.512689725594523443e-02,-3.447779303657617922e-02,-3.401599997277392901e-02,-3.373351629357417697e-02,-3.360184498514826729e-02,-3.357370394737878988e-02,-3.358635750702286538e-02,-3.356737193481853371e-02,-3.344290662240879952e-02,-3.314765292866009294e-02,-3.263476469090807047e-02,-3.188387438336649088e-02,-3.090584112568102448e-02,-2.974388786256515829e-02,-2.847142575216010663e-02,-2.718682348364137233e-02,-2.600484989415669315e-02,-2.504430899916494299e-02,-2.441255191478460332e-02,-2.418947270727223736e-02,-2.441435753514955426e-02,-2.507814942974618058e-02,-2.612257959652655379e-02,-2.744675090466805467e-02,-2.892035431854339186e-02,-3.040073583374120619e-02,-3.175020784493883669e-02,-3.285099214736410256e-02,-3.361634139027216972e-02,-3.399687663528368209e-02,-3.398191242401766426e-02,-3.359648735983842421e-02,-3.289508362464416136e-02,-3.195276894740603502e-02,-3.085473492875090429e-02,-2.968633228707765609e-02,-2.852625109029850378e-02,-2.744368001281981273e-02,-2.649762301035361867e-02,-2.573632544904242564e-02,-2.519675057925115091e-02,-2.490504534131325609e-02,-2.487776031193030674e-02,-2.512229533212003568e-02,-2.563523129802395065e-02,-2.639823053690010940e-02,-2.737264100119393348e-02,-2.849580280258756648e-02,-2.968255146648434567e-02,-3.083314630931862158e-02,-3.184538490288268964e-02,-3.262673828584752161e-02,-3.310352307915701009e-02,-3.322736002377899706e-02,-3.298101967353178621e-02,-3.238421846224873862e-02,-3.149690546431580668e-02,-3.041633349522670712e-02,-2.926612947776528750e-02,-2.817923591419373847e-02,-2.727896017149196092e-02,-2.666203765568147740e-02,-2.638617213282390753e-02,-2.646374378672962380e-02,-2.686275061197672051e-02,-2.751419111259233857e-02,-2.832289931138620015e-02,-2.917887275360559265e-02,-2.996847637246344287e-02,-3.058659667907916851e-02,-3.094971453252369498e-02,-3.100715217657286013e-02,-3.074678164755235629e-02,-3.019381866186611474e-02,-2.940465138970364128e-02,-2.845892102003147808e-02,-2.745164467534341735e-02,-2.648451309071661944e-02,-2.565427852988814289e-02,-2.503827199722511582e-02,-2.468085970889455361e-02,-2.458611866254250058e-02,-2.471956496874519460e-02,-2.501763557535950644e-02,-2.540100321558695987e-02,-2.578778594784299216e-02,-2.610432142276112102e-02,-2.629308845947187639e-02,-2.631854236455968485e-02,-2.617143134452292255e-02,-2.587087648884851820e-02,-2.546246842794858828e-02,-2.501118846360162601e-02,-2.459009200244866716e-02,-2.426785510810170257e-02,-2.409886545914788347e-02,-2.411825094443578385e-02,-2.434174834319601313e-02,-2.476790222764014768e-02,-2.537973161418287035e-02,-2.614511737993358703e-02,-2.701721624422177490e-02,-2.793622459833337152e-02,-2.883274086411444573e-02,-2.963215269490201975e-02,-3.025907693641943091e-02,-3.064119669836636722e-02,-3.071312423822264090e-02,-3.042191482304655928e-02,-2.973487725140579532e-02,-2.864797118207852017e-02,-2.719196783343965154e-02,-2.543477413147867891e-02,-2.348004360210580524e-02,-2.146259209925741387e-02,-1.954055989536595400e-02,-1.788378073234894033e-02,-1.665781961226599217e-02,-1.600412645974493356e-02,-1.601944481261417808e-02,-1.674066215987515469e-02,-1.814093099625236488e-02,-2.013785812139811532e-02,-2.260908076963753441e-02,-2.540913739641435798e-02,-2.838361697014473231e-02,-3.137911476835287400e-02,-3.424952384297961366e-02,-3.686069329651620735e-02,-3.909561582789028433e-02,-4.086083513486005181e-02,-4.209320115380484062e-02,-4.276572118253788718e-02,-4.289168902328793082e-02,-4.252667945982940845e-02,-4.176810549932717664e-02,-4.075161976027018296e-02,-3.964273263469608732e-02,-3.862196039274978787e-02,-3.786394617757749687e-02,-3.751425834153074290e-02,-3.766921555117747761e-02,-3.836306046620470422e-02,-3.956463560377059679e-02,-4.118355009534267752e-02,-4.308355779445172812e-02,-4.509947771118257703e-02,-4.705484436462224751e-02,-4.877943356032030803e-02,-5.012638753286862564e-02,-5.098768485866811417e-02,-5.130609914554314782e-02,-5.108222180591998757e-02,-5.037530614659864459e-02,-4.929637679840885578e-02,-4.799312630596292567e-02,-4.662926463484622780e-02,-4.536341645796683475e-02,-4.433170481197319657e-02,-4.363538267988716080e-02,-4.333363082933598676e-02,-4.344206121161506978e-02,-4.393726900012760728e-02,-4.476636384159030785e-02,-4.585885926944771596e-02,-4.713743019478270485e-02,-4.852482055890484230e-02,-4.994689384851618702e-02,-5.133421618989867513e-02,-5.262445344614734288e-02,-5.376622523762103478e-02,-5.472367150129354291e-02,-5.548013415703033357e-02,-5.603915743864419652e-02,-5.642190391942975003e-02,-5.666173149394549552e-02,-5.679786920293176250e-02,-5.686986501135155719e-02,-5.691317727737348064e-02,-5.695553862488252073e-02,-5.701427662285965536e-02,-5.709542827074044757e-02,-5.719500681929704650e-02,-5.730178023976715412e-02,-5.740047371349827482e-02,-5.747457129414143551e-02,-5.750864099101895416e-02,-5.749068117408724643e-02,-5.741468915231893316e-02,-5.728293322673029542e-02,-5.710711394771700311e-02,-5.690795121179447608e-02,-5.671342446406549970e-02,-5.655605147583640802e-02,-5.646906775454918481e-02,-5.648160568427910283e-02,-5.661414291135424132e-02,-5.687550037481782506e-02,-5.726116903873532116e-02,-5.775208573687654751e-02,-5.831413620811697063e-02,-5.889979947314723241e-02,-5.945269024076398762e-02,-5.991405327135330278e-02,-6.022961567011402700e-02,-6.035572540680127912e-02,-6.026405563557076656e-02,-5.994461102847297579e-02,-5.940760062222100180e-02,-5.868449510905808519e-02,-5.782724601573187295e-02,-5.690418868491027571e-02,-5.599217359914655107e-02,-5.516573538089142997e-02,-5.448510912649252858e-02,-5.398607782779822617e-02,-5.367507440702513899e-02,-5.353122709578248678e-02,-5.351413507844184764e-02,-5.357440993111715899e-02,-5.366421481983207897e-02,-5.374628389167084713e-02,-5.380055976198839379e-02,-5.382702048036673570e-02,-5.384288620223595667e-02,-5.387366356013904151e-02,-5.394038792105272651e-02,-5.404832235506879662e-02,-5.418239003972014078e-02,-5.431088947664039490e-02,-5.439478029599925657e-02,-5.439836860324071682e-02,-5.429833860409367247e-02,-5.408982152281590489e-02,-5.378946421801479583e-02,-5.343571136410377176e-02,-5.308567892073936395e-02,-5.280760324925064947e-02,-5.266965745596156878e-02,-5.272861708400931879e-02,-5.302220162111599688e-02,-5.356672868414241034e-02,-5.435949302351529566e-02,-5.538395655527426908e-02,-5.661506503998543771e-02,-5.802208451363751601e-02,-5.956768579253151480e-02,-6.120450652727070506e-02,-6.287272857023994133e-02,-6.450210498061313691e-02,-6.601916199749231773e-02,-6.735739906240217900e-02,-6.846725912140180781e-02,-6.932343224856997443e-02,-6.992857640964372790e-02,-7.031366692846195698e-02,-7.053522966945628692e-02,-7.066909696846220001e-02,-7.080053331421301555e-02,-7.101206093750059289e-02,-7.137141807649761971e-02,-7.192160305760716965e-02,-7.267393507000835529e-02,-7.360471588760428285e-02,-7.465618596324248568e-02,-7.574224040452924578e-02,-7.675839776198552233e-02,-7.759430842638050108e-02,-7.814676119170824165e-02,-7.833171952399400895e-02,-7.809415237194984594e-02,-7.741418166456882910e-02,-7.630860041510868774e-02,-7.482806926372435885e-02,-7.305093225840636473e-02,-7.107455862171965788e-02,-6.900535191349725650e-02,-6.694898323915114691e-02,-6.500216939027758656e-02,-6.324624712422613482e-02,-6.174178121178060946e-02,-6.052371738689107245e-02,-5.959812159447384905e-02,-5.894249430302140463e-02,-5.851046250768618395e-02,-5.823934623837798835e-02,-5.805829565063667930e-02,-5.789614030885861795e-02,-5.768938495933390032e-02,-5.739001739288749487e-02,-5.697149005979328107e-02,-5.643143935769370789e-02,-5.579089271348554313e-02,-5.509061806428587615e-02,-5.438573765259788889e-02,-5.373987222367593991e-02,-5.321974128755450895e-02,-5.289030567254440068e-02,-5.280973307860226118e-02,-5.302351292950783362e-02,-5.355801570238067494e-02,-5.441479540325835917e-02,-5.556718905131566300e-02,-5.696021768552272241e-02,-5.851373994612174556e-02,-6.012776782115508700e-02,-6.168874148945083929e-02,-6.307683713960784977e-02,-6.417575313004243720e-02,-6.488577222376631926e-02,-6.513820813950395305e-02,-6.490730711603821812e-02,-6.421630029229054293e-02,-6.313644157813066982e-02,-6.177956790379072333e-02,-6.028583048596445476e-02,-5.880904669855131772e-02,-5.750184106087920244e-02,-5.650125915105567997e-02,-5.591473474973041036e-02,-5.580752321721027531e-02,-5.619423154284364924e-02,-5.703651067650941653e-02,-5.824702967309641766e-02,-5.969869618905190856e-02,-6.123778865172338493e-02,-6.269929738443891232e-02,-6.392279959184510307e-02,-6.476787457606428267e-02,-6.512836949186870394e-02,-6.494427208325671830e-02,-6.420909110661793262e-02,-6.297039198033442531e-02,-6.132239537764171133e-02,-5.939192077251110452e-02,-5.732065115860957710e-02,-5.524690769136510193e-02,-5.328955660497516206e-02,-5.153591413119681247e-02,-5.003490504518665755e-02,-4.879631411312921468e-02,-4.779604764071904849e-02,-4.698588990338924132e-02,-4.630542990224165156e-02,-4.569386825349656261e-02,-4.509957263250782139e-02,-4.448566151917023037e-02,-4.383112734674606686e-02,-4.312863718724299633e-02,-4.238115622227534712e-02,-4.159948794852935672e-02,-4.080185402733701311e-02,-4.001515542346859716e-02,-3.927641391452747766e-02,-3.863286126499246298e-02,-3.814000818878143101e-02,-3.785774356814502334e-02,-3.784445935632576447e-02,-3.814901343209884527e-02,-3.880105231173149039e-02,-3.980175162596560207e-02,-4.111809862812791649e-02,-4.268319605754198470e-02,-4.440298654828619268e-02,-4.616763862769918125e-02,-4.786454165405249622e-02,-4.938995467897614594e-02,-5.065793269012908162e-02,-5.160698275416282510e-02,-5.220535234368645083e-02,-5.245475714287316238e-02,-5.239101399136503884e-02,-5.207997606385410955e-02,-5.160879539921212067e-02,-5.107462012507704707e-02,-5.057361650833432087e-02,-5.019209445567870964e-02,-4.999965388461386634e-02,-5.004360743196811789e-02,-5.034495069487435887e-02,-5.089698261415240982e-02,-5.166688283655364311e-02,-5.259935859383283591e-02,-5.362145218648939338e-02,-5.464802303796643945e-02,-5.558723800154825173e-02,-5.634560711073997169e-02,-5.683333724094708633e-02,-5.697148519675766104e-02,-5.670140354605306132e-02,-5.599492118758234854e-02,-5.486204276263524637e-02,-5.335322305287151790e-02,-5.155536646812018675e-02,-4.958267065348477554e-02,-4.756424559806894659e-02,-4.563045581610870871e-02,-4.389933268798196925e-02,-4.246364165955592712e-02,-4.137937651901598540e-02,-4.065759290004188758e-02,-4.026193005333746078e-02,-4.011297777696047617e-02,-4.009892080214346594e-02,-4.009055586058508924e-02,-3.995760530744935091e-02,-3.958304863558729375e-02,-3.887402150932705441e-02,-3.776996316038247481e-02,-3.624847465604504049e-02,-3.432736918453576508e-02,-3.206092106816374465e-02,-2.953064370160109545e-02,-2.683329219318476844e-02,-2.406879110359013904e-02,-2.132969503761622879e-02,-1.869305352008857057e-02,-1.621477160805260415e-02,-1.392612671623262750e-02,-1.183275947774091452e-02,-9.916769194351335998e-03,-8.141382904481067259e-03,-6.456626827982703265e-03,-4.804690631335469496e-03,-3.124299283796911839e-03,-1.353806231296056893e-03,5.664990667812880038e-04,2.691373687914060293e-03,5.065634431418806344e-03,7.717643323617554355e-03,1.065309048905573736e-02,1.385089972500858253e-02,1.726229266751697772e-02,2.081337331932735582e-02,2.441132097661720401e-02,2.795377520192545914e-02,3.133995348520778740e-02,3.448149766638618913e-02,3.731181841046837117e-02,3.979385202885298012e-02,4.192576433975896133e-02,4.374212020291300823e-02,4.530746694154715731e-02,4.670257176155745427e-02,4.800817132955928490e-02,4.929244453605838988e-02,5.060533259079415258e-02,5.197816776941856926e-02,5.342480271125284869e-02,5.494191424565957743e-02,5.650895874141456665e-02,5.808965163945503662e-02,5.963614677152292293e-02,6.109480227070579472e-02,6.241060336678126014e-02,6.352859682635399186e-02,6.439438778797414165e-02,6.495777159509572019e-02,6.518126573623413134e-02,6.505065357377851076e-02,6.458210374390123409e-02,6.382198251800469402e-02,6.283915215173316304e-02,6.171262423097765432e-02,6.051873107083275555e-02,5.932124113783417835e-02,5.816551298623163363e-02,5.707529472271662824e-02,5.605006061300796955e-02,5.506248976329971428e-02,5.405775477449174804e-02,5.295634971066179308e-02,5.166081600176066629e-02,5.006546530067453732e-02,4.806733335655739847e-02,4.557654185265894164e-02,4.252526394113324143e-02,3.887534037574118251e-02,3.462431069777199139e-02,2.980889766888929898e-02,2.450475007236986580e-02,1.882173563730886803e-02,1.289503187516484982e-02,6.873315511549136884e-03,9.063239895239615790e-04,-4.865488675318279874e-03,-1.031763611426014457e-02,-1.534568516822554761e-02,-1.986925661620915148e-02,-2.383697121829702129e-02,-2.723097593606347080e-02,-3.006900661917083495e-02,-3.240290884461319298e-02,-3.431367288693243367e-02,-3.590357982908478490e-02,-3.728614179917591476e-02,-3.857439071121343543e-02,-3.986805051446863646e-02,-4.124080651099167050e-02,-4.273013041299050102e-02,-4.433284265263106455e-02,-4.600901706819117420e-02,-4.769477450107115213e-02,-4.932093531554998522e-02,-5.083077181442702264e-02,-5.218945228317987267e-02,-5.338179318368208026e-02,-5.440102662481362955e-02,-5.523540028937333479e-02,-5.585962230563067815e-02,-5.623506565333234730e-02,-5.631840282910305362e-02,-5.607518923178819031e-02,-5.549379994147637246e-02,-5.459582455347431612e-02,-5.344076361592133007e-02,-5.212438766430986525e-02,-5.077083331012011147e-02,-4.951922730207634904e-02,-4.850669410953525190e-02,-4.785037904643356377e-02,-4.763151797414981459e-02,-4.788455674872934414e-02,-4.859325750595145516e-02,-4.969381547483139872e-02,-5.108338632182753830e-02,-5.263209553240980054e-02,-5.419755078367396312e-02,-5.564142480694308363e-02,-5.684641193628914985e-02,-5.773029030858112254e-02,-5.825419875978965489e-02,-5.842408122237888884e-02,-5.828581360755681617e-02,-5.791552433848114190e-02,-5.740737923924329328e-02,-5.686112005177781925e-02,-5.637060139617822152e-02,-5.601357041336794268e-02,-5.584319851605578505e-02,-5.588273863575800998e-02,-5.612467734581136347e-02,-5.653488780980819167e-02,-5.706131844343256126e-02,-5.764560139629330143e-02,-5.823480459696400713e-02,-5.879080569400237793e-02,-5.929694806406244495e-02,-5.976335594772391041e-02,-6.023099355426336787e-02,-6.077171882776540024e-02,-6.148108562319804654e-02,-6.246342340465711046e-02,-6.381212914424437554e-02,-6.558988983616557966e-02,-6.781346562583044635e-02,-7.044596774694533714e-02,-7.339680287416264215e-02,-7.652741515099920067e-02,-7.966126818015065170e-02,-8.259809095831811832e-02,-8.513274016894110952e-02,-8.707765565911793071e-02,-8.828613867942958215e-02,-8.867233621425962831e-02,-8.822372602978030554e-02,-8.700411260868989860e-02,-8.514829314017810513e-02,-8.285108165297626337e-02,-8.035325699304189662e-02,-7.792604069953289192e-02,-7.585357347467822087e-02,-7.441094262821586203e-02,-7.383629171408916114e-02,-7.429900533115556260e-02,-7.586911968803278228e-02,-7.849396926925243656e-02,-8.198558494769458971e-02,-8.601765177871133206e-02,-9.012859978705313468e-02,-9.373063997087077714e-02,-9.612939776745914322e-02,-9.655959127121459262e-02,-9.423884926615112845e-02,-8.843733426629975247e-02,-7.855627913542688467e-02,-6.420426970456279137e-02,-4.525864833287753658e-02,-2.190271740859902824e-02,5.364542592030885175e-03,3.574492780714214057e-02,6.818051647884605659e-02,1.014120000769127838e-01,1.340502581348940736e-01,1.646558374084685916e-01,1.918237975476551060e-01,2.142740359571097819e-01,2.309458879825184441e-01,2.410905518259133518e-01,0.000000000000000000e+00,0.000000000000000000e+00,0.000000000000000000e+00,0.000000000000000000e+00,0.000000000000000000e+00,0.000000000000000000e+00,0.000000000000000000e+00,0.000000000000000000e+00,0.000000000000000000e+00,0.000000000000000000e+00,0.000000000000000000e+00,0.000000000000000000e+00,0.000000000000000000e+00,0.000000000000000000e+00,0.000000000000000000e+00,0.000000000000000000e+00,0.000000000000000000e+00,0.000000000000000000e+00,0.000000000000000000e+00,0.000000000000000000e+00,0.000000000000000000e+00,0.000000000000000000e+00,0.000000000000000000e+00,0.000000000000000000e+00,0.000000000000000000e+00,0.000000000000000000e+00,0.000000000000000000e+00,0.000000000000000000e+00,0.000000000000000000e+00,0.000000000000000000e+00,0.000000000000000000e+00,0.000000000000000000e+00,0.000000000000000000e+00,0.000000000000000000e+00,0.000000000000000000e+00,0.000000000000000000e+00,0.000000000000000000e+00,0.000000000000000000e+00,0.000000000000000000e+00,0.000000000000000000e+00,0.000000000000000000e+00,0.000000000000000000e+00,0.000000000000000000e+00,0.000000000000000000e+00,0.000000000000000000e+00,0.000000000000000000e+00,0.000000000000000000e+00,0.000000000000000000e+00,0.000000000000000000e+00,0.000000000000000000e+00,0.000000000000000000e+00,0.000000000000000000e+00,0.000000000000000000e+00,0.000000000000000000e+00,0.000000000000000000e+00,0.000000000000000000e+00,0.000000000000000000e+00,0.000000000000000000e+00,0.000000000000000000e+00,0.000000000000000000e+00,0.000000000000000000e+00,0.000000000000000000e+00,0.000000000000000000e+00,0.000000000000000000e+00,0.000000000000000000e+00,0.000000000000000000e+00,0.000000000000000000e+00,0.000000000000000000e+00,0.000000000000000000e+00,0.000000000000000000e+00,0.000000000000000000e+00,0.000000000000000000e+00,0.000000000000000000e+00,0.000000000000000000e+00,0.000000000000000000e+00,0.000000000000000000e+00,0.000000000000000000e+00,0.000000000000000000e+00,0.000000000000000000e+00,0.000000000000000000e+00,0.000000000000000000e+00,0.000000000000000000e+00,0.000000000000000000e+00,0.000000000000000000e+00,0.000000000000000000e+00,0.000000000000000000e+00,0.000000000000000000e+00,0.000000000000000000e+00,0.000000000000000000e+00,0.000000000000000000e+00,0.000000000000000000e+00,0.000000000000000000e+00,0.000000000000000000e+00,0.000000000000000000e+00
2.443497527699387273e-01,2.408068215116581368e-01,2.309971456336003814e-01,2.158699402498561182e-01,1.967032146736311105e-01,1.749844663703880310e-01,1.522751930741952087e-01,1.300765799902662001e-01,1.097097565496844979e-01,9.222029817722132705e-02,7.831423126161929371e-02,6.833038567631800897e-02,6.225079066120174642e-02,5.974728604378109348e-02,6.025817862966388605e-02,6.308372539136536394e-02,6.748573555420875336e-02,7.277654294188296014e-02,7.838585023668090401e-02,8.389906678322323064e-02,8.906560120921598600e-02,9.377947294249790178e-02,9.803903563027660528e-02,1.018969735402899673e-01,1.054130632965654818e-01,1.086197483675703651e-01,1.115059199232202453e-01,1.140185541056614321e-01,1.160767721779299849e-01,1.175911618121802532e-01,1.184828260755244195e-01,1.186988472491389696e-01,1.182223451359124544e-01,1.170766147637070514e-01,1.153237147420600323e-01,1.130575756033961460e-01,1.103912158366738977e-01,1.074392475435109601e-01,1.043002437000224297e-01,1.010453199698709698e-01,9.771715300804061088e-02,9.433884059913008602e-02,9.092777496141256355e-02,8.750864441987907250e-02,8.412142022394981933e-02,8.082247385273348683e-02,7.767920940510539274e-02,7.476107932907481712e-02,7.213085413816217040e-02,6.983823344233737462e-02,6.791537803163401332e-02,6.637321512448142447e-02,6.519842921195803664e-02,6.435241442077097029e-02,6.377364088121803554e-02,6.338342394622699383e-02,6.309319303211075036e-02,6.281102491546816657e-02,6.244711903676268550e-02,6.191989066573846262e-02,6.116380554809230929e-02,6.013775460729683942e-02,5.883140162614536317e-02,5.726745983123267963e-02,5.549939285015915297e-02,5.360547323559523153e-02,5.168089362691776628e-02,4.982960028500054567e-02,4.815637962841365360e-02,4.675818842255883429e-02,4.571418533168023629e-02,4.507642289840972649e-02,4.486411579246231407e-02,4.506245507716074433e-02,4.562472761600987886e-02,4.647592471542153630e-02,4.751690950234757627e-02,4.862994489886163230e-02,4.968754600642571323e-02,5.056572846167040752e-02,5.116021311885778078e-02,5.140179990892063122e-02,5.126651792189827056e-02,5.077778401685238002e-02,5.000058754526907207e-02,4.903037874757359277e-02,4.798118441481158403e-02,4.697689836048094675e-02,4.614577760546075685e-02,4.561419730682159113e-02,4.549600401574637604e-02,4.587787724750072571e-02,4.680481489738418793e-02,4.827047514305689985e-02,5.021514135275441382e-02,5.253154390757314857e-02,5.507687731141026888e-02,5.768816960449357767e-02,6.019803851234250408e-02,6.244905634092733776e-02,6.430628174537302011e-02,6.566783012785160079e-02,6.647303796605052995e-02,6.670746785070880147e-02,6.640379875365053086e-02,6.563795938731162294e-02,6.452090886588866814e-02,6.318746700183987264e-02,6.178379924100528553e-02,6.045493258455580249e-02,5.933373234646403815e-02,5.853290045136046171e-02,5.814098386125563650e-02,5.822192974672042026e-02,5.881611177694342357e-02,5.994010410745297113e-02,6.158347554210039099e-02,6.370327160247823972e-02,6.621961348603114250e-02,6.901716740623503599e-02,7.195551392430452053e-02,7.488717326738146551e-02,7.767804505400928428e-02,8.022428094913082453e-02,8.246224459097453718e-02,8.437113871753598726e-02,8.596911214885707975e-02,8.730451686372368847e-02,8.844504840402292456e-02,8.946715061143993564e-02,9.044648341401737013e-02,9.144962811432494343e-02,9.252772180615642661e-02,9.371256428197298483e-02,9.501464598300048137e-02,9.642220507201232360e-02,9.790161486857713868e-02,9.940070754649120433e-02,1.008562540720994855e-01,1.022046085853358793e-01,1.033923715508560243e-01,1.043840613718913374e-01,1.051659997286774201e-01,1.057472858622841988e-01,1.061585129388101234e-01,1.064482034334877231e-01,1.066773857460319025e-01,1.069136565255149607e-01,1.072255971768589361e-01,1.076767757397324859e-01,1.083182845945735162e-01,1.091805181055364171e-01,1.102666768131421587e-01,1.115506030574899415e-01,1.129797131141770383e-01,1.144811835661945082e-01,1.159684743041582283e-01,1.173467128565073292e-01,1.185179125729427518e-01,1.193881582280917619e-01,1.198777276241579370e-01,1.199326564080949731e-01,1.195345870172891262e-01,1.187059943071008261e-01,1.175095595670923310e-01,1.160423820908473291e-01,1.144267758324112455e-01,1.127991216099674537e-01,1.112971621316359710e-01,1.100454619410716067e-01,1.091397260139141401e-01,1.086331844798880397e-01,1.085298216162042806e-01,1.087873030804878405e-01,1.093280586523969200e-01,1.100537242483478617e-01,1.108582517729460454e-01,1.116376991878643282e-01,1.122975817511586427e-01,1.127596160595529390e-01,1.129684117273104527e-01,1.128969960674458400e-01,1.125500541761659951e-01,1.119648499813790665e-01,1.112099777879022172e-01,1.103813837626192035e-01,1.095949812900551545e-01,1.089760480743214854e-01,1.086464823484375730e-01,1.087113133944061366e-01,1.092460365021939578e-01,1.102866295942392244e-01,1.118239786492450233e-01,1.138036881620500679e-01,1.161314226890313994e-01,1.186831079746431122e-01,1.213181689975528360e-01,1.238932045847296465e-01,1.262742527809326276e-01,1.283475410886134593e-01,1.300294193249866559e-01,1.312751748422978371e-01,1.320848275923490467e-01,1.325035851470271753e-01,1.326159029033522896e-01,1.325342274346988369e-01,1.323852356680730591e-01,1.322963099986303181e-01,1.323830309336102573e-01,1.327370993004188537e-01,1.334151773174415689e-01,1.344309001443994844e-01,1.357524752077369501e-01,1.373070982774297066e-01,1.389917782598756590e-01,1.406882707542231048e-01,1.422783553240856702e-01,1.436560834884242632e-01,1.447361837605037338e-01,1.454601663771053766e-01,1.458010721568807622e-01,1.457654071448054034e-01,1.453905926887414102e-01,1.447389218816407808e-01,1.438908417797932215e-01,1.429393809500500712e-01,1.419856951433520476e-01,1.411345534560627946e-01,1.404878482435664433e-01,1.401344678931972509e-01,1.401369246982828998e-01,1.405177606700984683e-01,1.412502471015925909e-01,1.422576509755792695e-01,1.434229209977456176e-01,1.446065335558595066e-01,1.456670978561497853e-01,1.464793997247193502e-01,1.469470211414293792e-01,1.470090249712792674e-01,1.466413111058952889e-01,1.458537716858888389e-01,1.446847642296234249e-01,1.431943780774905528e-01,1.414575296775088253e-01,1.395576714337378177e-01,1.375818887926586742e-01,1.356174626964112839e-01,1.337485357903570038e-01,1.320510388651879030e-01,1.305853211934168978e-01,1.293877703662336676e-01,1.284638737829885691e-01,1.277852642065434030e-01,1.272921721291336572e-01,1.269007366155872341e-01,1.265130711544958098e-01,1.260280419278100583e-01,1.253518369629391116e-01,1.244079184331156746e-01,1.231456057260405801e-01,1.215461886536779862e-01,1.196251803467326402e-01,1.174293574794932210e-01,1.150286237700713782e-01,1.125051208457778784e-01,1.099434731837517221e-01,1.074251845554173301e-01,1.050273982927750760e-01,1.028234667388962797e-01,1.008818665530155090e-01,9.926123060163950795e-02,9.800182287392883440e-02,9.711609389976587348e-02,9.658161445928366284e-02,9.633905907469525465e-02,9.629677108227607807e-02,9.634149029083709237e-02,9.635273359490172107e-02,9.621775191025871976e-02,9.584481738274723550e-02,9.517333436316606499e-02,9.417950230543886692e-02,9.287673247208413918e-02,9.131117259366018646e-02,8.955411847166092065e-02,8.769411478639677071e-02,8.583124924800167310e-02,8.407360728263812977e-02,8.253269257858210362e-02,8.131471581303748031e-02,8.050823877317152266e-02,8.017136307996419742e-02,8.032147384601975859e-02,8.092964799465902914e-02,8.192129885073683171e-02,8.318326996264235884e-02,8.457555831975036020e-02,8.594523630364105105e-02,8.714156885046921153e-02,8.803257254205384963e-02,8.852235066673802555e-02,8.856625800513570623e-02,8.817983461623968289e-02,8.743894899521514885e-02,8.647151836374540601e-02,8.544319341952548441e-02,8.453935112016704168e-02,8.394443474495892621e-02,8.381923508700796221e-02,8.427829777739939687e-02,8.537195128924832122e-02,8.707823003184425592e-02,8.930786528368583888e-02,9.192095186421551933e-02,9.474973258269590859e-02,9.762092790623623506e-02,1.003726989767067118e-01,1.028641543237331923e-01,1.049786231528680724e-01,1.066239850766557834e-01,1.077327754953593952e-01,1.082633241313686878e-01,1.082025780319364611e-01,1.075702678548878105e-01,1.064222092034853573e-01,1.048500033218470739e-01,1.029758856587497384e-01,1.009430225065150039e-01,9.890219453068946343e-02,9.699635553992047576e-02,9.534559370448156268e-02,9.403572630123717413e-02,9.311284722501289579e-02,9.258376837551292315e-02,9.242010734078394407e-02,9.256323094801556517e-02,9.292865482847159631e-02,9.341091365181551642e-02,9.389150801330160834e-02,9.425164282184937681e-02,9.438841245993861984e-02,9.423042988574704959e-02,9.374875870223035867e-02,9.296078093127797815e-02,9.192676876376487671e-02,9.074087730976299060e-02,8.951921123649990431e-02,8.838660749229974856e-02,8.746234728199320241e-02,8.684571544185933079e-02,8.660446255858171571e-02,8.676952516171934637e-02,8.733674918800828080e-02,8.827334788425504619e-02,8.952585947439005432e-02,9.102705662417302779e-02,9.270035133849513498e-02,9.446190916657917769e-02,9.622265855614721419e-02,9.789254686297002572e-02,9.938722629665013020e-02,1.006356143771589551e-01,1.015869227803357644e-01,1.022159869264889498e-01,1.025255846149375066e-01,1.025455056492725892e-01,1.023295583204514442e-01,1.019508607999747574e-01,1.014937120959431144e-01,1.010411032338426052e-01,1.006608157988325702e-01,1.003951991933503124e-01,1.002571357218548093e-01,1.002307971227356376e-01,1.002749502884133226e-01,1.003280586210219122e-01,1.003153341703594686e-01,1.001578695918337036e-01,9.978367583797172202e-02,9.913957244112062139e-02,9.820182565355466131e-02,9.698327303535177191e-02,9.553531044412826023e-02,9.394408064579616580e-02,9.232165114944441975e-02,9.079441432913021304e-02,8.949110740059200431e-02,8.853145815976082300e-02,8.801495393111623267e-02,8.800940647489587099e-02,8.854087971589467976e-02,8.958779121374411958e-02,9.108084844822081361e-02,9.290869630133254120e-02,9.492855768447736042e-02,9.698033375712949988e-02,9.890121292848690071e-02,1.005383831015001367e-01,1.017598262127036024e-01,1.024639059510462358e-01,1.025870525533175842e-01,1.021082771211134360e-01,1.010503965829502998e-01,9.947869012598664629e-02,9.749703215931293521e-02,9.524066887660126435e-02,9.286529825368254609e-02,9.053313973025423067e-02,8.839682093717197986e-02,8.658222792569131299e-02,8.517323474271984440e-02,8.420267575446031827e-02,8.365261202791068884e-02,8.346337046538002125e-02,8.354772676574317991e-02,8.380581477355575348e-02,8.413733162403795596e-02,8.444919563133616858e-02,8.465890476659045094e-02,8.469587276612960958e-02,8.450333140552618305e-02,8.404164661140689496e-02,8.329190639244811456e-02,8.225814061173861158e-02,8.096744923922939707e-02,7.946844282565304618e-02,7.782871842107864924e-02,7.613122402636882113e-02,7.446822058691589252e-02,7.293190844416375107e-02,7.160282663869985131e-02,7.053893784532291877e-02,6.976821142715095014e-02,6.928575451295618248e-02,6.905468118940653877e-02,6.900917066680022083e-02,6.905884893706935868e-02,6.909527900201858919e-02,6.900241902861244114e-02,6.867194489509791111e-02,6.802179241303092649e-02,6.701385115317688712e-02,6.566592981234754822e-02,6.405463191862557915e-02,6.230873137098785763e-02,6.059506737311646379e-02,5.909989841987939307e-02,5.800825263161014239e-02,5.748284977922101663e-02,5.764385924988732479e-02,5.855157343087682292e-02,6.019501967280133786e-02,6.248917400270864037e-02,6.528156209818164468e-02,6.836713103250564860e-02,7.150936519732599417e-02,7.446512887962342120e-02,7.701052921387926964e-02,7.896532892246928281e-02,8.021294075166826576e-02,8.071189177665298586e-02,8.049543977934947581e-02,7.965955544180612635e-02,7.834315289746041078e-02,7.670613111409459173e-02,7.491041274074761169e-02,7.310694764119987643e-02,7.142812506895235281e-02,6.998234618658484563e-02,6.884789092526578946e-02,6.806612457866752230e-02,6.763663168557501604e-02,6.751712305201391928e-02,6.762930185799438665e-02,6.786931669634166386e-02,6.811928116064192018e-02,6.825680982832839361e-02,6.816282047580017600e-02,6.773027345918741782e-02,6.687522081365816773e-02,6.554829053928452887e-02,6.374296032871111517e-02,6.149799648757298121e-02,5.889383246792395665e-02,5.604447043035010873e-02,5.308736570680562539e-02,5.017369965154903216e-02,4.745975698274766674e-02,4.509766314862573983e-02,4.322314677125296822e-02,4.194033384255945601e-02,4.130689684705655951e-02,4.132426346069272699e-02,4.193594395045177614e-02,4.303391408126010231e-02,4.447072974740740731e-02,4.607478733715358182e-02,4.766732431172052836e-02,4.908041274733997150e-02,5.017412127450035508e-02,5.084995269466196371e-02,5.105868530307548780e-02,5.080260420524945059e-02,5.013255025608468612e-02,4.914005853532757429e-02,4.794597058194180472e-02,4.668799233859410869e-02,4.550858019212589839e-02,4.454277398858168258e-02,4.390570904070355968e-02,4.368068643057379519e-02,4.390903699620812145e-02,4.458298927710160897e-02,4.564302179626543443e-02,4.698114181013366558e-02,4.845063793061624852e-02,4.988144900025590078e-02,5.109920404827813373e-02,5.194548845355210359e-02,5.229656196823451869e-02,5.207770503990342276e-02,5.127120176431329557e-02,4.991737181095223796e-02,4.810898991148799403e-02,4.597990166732106310e-02,4.368962688894125618e-02,4.140682367448683676e-02,3.929398301089231244e-02,3.749369105093437737e-02,3.611574269923301106e-02,3.522588350494171294e-02,3.483911416802674271e-02,3.492044220206409061e-02,3.539330630378875048e-02,3.615247395407956282e-02,3.707650125089335252e-02,3.803661606579388649e-02,3.890302704582258159e-02,3.955213581550030832e-02,3.987630909304672872e-02,3.979414459374898405e-02,3.925810477791047415e-02,3.825861869877446308e-02,3.682558494189238502e-02,3.502755863868041442e-02,3.296772617413201711e-02,3.077603542167679437e-02,2.859796648162292107e-02,2.658125617863784165e-02,2.486232849462000766e-02,2.355436967155235400e-02,2.273851345955111083e-02,2.245839523202036725e-02,2.271756834218115195e-02,2.347967086776450718e-02,2.467165112692987217e-02,2.618997309081354946e-02,2.790925175121927379e-02,2.969266612207585934e-02,3.140334371571221889e-02,3.291561959448176256e-02,3.412502299172091164e-02,3.495606487271814972e-02,3.536704280535857281e-02,3.535122229922560422e-02,3.493441838269999850e-02,3.416989412052273689e-02,3.313154826258298685e-02,3.190563326608997219e-02,3.058092964326040303e-02,2.923793561255697351e-02,2.793867000139326970e-02,2.671927321318031193e-02,2.558730667693920324e-02,2.452462263712345408e-02,2.349494002694066733e-02,2.245345858724914767e-02,2.135580276832413360e-02,2.016557581781423802e-02,1.886117467807518072e-02,1.744168552413212156e-02,1.593037476484818887e-02,1.437441774532821973e-02,1.284081721204812128e-02,1.140963229993643621e-02,1.016602636250174205e-02,9.192359622006273517e-03,8.560613584207323046e-03,8.324502063109294817e-03,8.510970946054330008e-03,9.112180689534706349e-03,1.008005816305590670e-02,1.132550278915235228e-02,1.272354969874353418e-02,1.412434043294729519e-02,1.536793723154480755e-02,1.629993421902972001e-02,1.678545535411217829e-02,1.672087822863676382e-02,1.604357817265780750e-02,1.473915785732654408e-02,1.284439052914751814e-02,1.044445700728231959e-02,7.665097818677516460e-03,4.662290845596378866e-03,1.612161728520025749e-03,-1.298154882555821541e-03,-3.880371785884157310e-03,-5.958097414360754782e-03,-7.383779465818435077e-03,-8.056729633906394711e-03,-7.937242321020906641e-03,-7.053357141264380084e-03,-5.500090105591645684e-03,-3.432553363381754888e-03,-1.054080875960876308e-03,1.400339999607225780e-03,3.685607134146370260e-03,5.572426784685289951e-03,6.874350548651267205e-03,7.470390621635593191e-03,7.318178593083382588e-03,6.455451396166510258e-03,4.990544213847951036e-03,3.084383827644587850e-03,9.277475753864342783e-04,-1.281767386085361660e-03,-3.359803730455036049e-03,-5.151668339654992372e-03,-6.545584722262410594e-03,-7.481681176373947140e-03,-7.954039302330399852e-03,-8.004466595527406914e-03,-7.710108598385452539e-03,-7.169324608411461325e-03,-6.489840349145400283e-03,-5.780719664755901502e-03,-5.146723153401575913e-03,-4.682341273826388234e-03,-4.464066943347055026e-03,-4.541700143209594434e-03,-4.931019687996348287e-03,-5.610513259151558851e-03,-6.523813979630661147e-03,-7.587331139729811165e-03,-8.700475326859909847e-03,-9.755502284298870133e-03,-1.064592220297152191e-02,-1.127460983467572925e-02,-1.156247561100822926e-02,-1.145655640133343839e-02,-1.093581783115160633e-02,-1.001435304865280242e-02,-8.742736653405107014e-03,-7.207792582688870436e-03,-5.529857246064673847e-03,-3.856163057154343016e-03,-2.349557604139987984e-03,-1.172737901846425315e-03,-4.693263281874784942e-04,-3.447098669436326145e-04,-8.507640975709584216e-04,-1.978004180610680278e-03,-3.656435399009937050e-03,-5.763741681421282424e-03,-8.137662185440078591e-03,-1.058957956202315025e-02,-1.291866872119319491e-02,-1.492821342120730609e-02,-1.644543931197441772e-02,-1.734365030596016211e-02,-1.756248233989253851e-02,-1.712078044764603346e-02,-1.611834051186635322e-02,-1.472618824136682353e-02,-1.316728032795541625e-02,-1.169022098178833409e-02,-1.053935507720409059e-02,-9.925422442579020024e-03,-1.000131895287374555e-02,-1.084735131779976727e-02,-1.246851565001049801e-02,-1.480224005914914168e-02,-1.773165615081571250e-02,-2.109983219077130739e-02,-2.472298684050005038e-02,-2.840244905358722469e-02,-3.193589895978211218e-02,-3.512894274803425587e-02,-3.780778209599849199e-02,-3.983252268280416952e-02,-4.110938842515765579e-02,-4.159970884948740316e-02,-4.132452050110452246e-02,-4.036490669368327650e-02,-3.885806820389014343e-02,-3.698807809837675875e-02,-3.497027250993914316e-02,-3.302970152174054819e-02,-3.137623274130339757e-02,-3.018080512445669300e-02,-2.955745353298713102e-02,-2.955343485966811790e-02,-3.014719528181705396e-02,-3.125334526975754451e-02,-3.273427915267827087e-02,-3.441737318519889205e-02,-3.611523591660097121e-02,-3.764628638904987668e-02,-3.885386534964006128e-02,-3.962185135649565204e-02,-3.988376413008275917e-02,-3.962411537098287084e-02,-3.887452701037754504e-02,-3.770782795184268732e-02,-3.623095906003497707e-02,-3.457634379098825650e-02,-3.289177535760876708e-02,-3.132883302646592011e-02,-3.003014326171728199e-02,-2.911734123444085359e-02,-2.868238382099094763e-02,-2.878327074108096018e-02,-2.944273718644489779e-02,-3.064751351323271103e-02,-3.234693402877454604e-02,-3.445206447279918621e-02,-3.683829109496856991e-02,-3.935351245900205186e-02,-4.183106984335131090e-02,-4.410440425868800834e-02,-4.602098326092623343e-02,-4.745489479529253762e-02,-4.831839024831748042e-02,-4.857191383411001845e-02,-4.823085604413088895e-02,-4.736682387432091662e-02,-4.610208430941657720e-02,-4.459745956389627591e-02,-4.303538473668294673e-02,-4.160048507735832762e-02,-4.046023972871336249e-02,-3.974848266212970688e-02,-3.955396763778479263e-02,-3.991460250386396486e-02,-4.081658594673304163e-02,-4.219775092494730540e-02,-4.395517546452556990e-02,-4.595718380422004340e-02,-4.805881452139651455e-02,-5.011823412538243816e-02,-5.201059684947944434e-02,-5.363664582933015679e-02,-5.492572851593603700e-02,-5.583506958249911944e-02,-5.634757884882039131e-02,-5.646925131054023050e-02,-5.622546507000611427e-02,-5.565460108081397156e-02,-5.479829100843145590e-02,-5.368975278985417543e-02,-5.234352873825715013e-02,-5.075018269003181426e-02,-4.887805807680743048e-02,-4.668189580955971890e-02,-4.411583840788903255e-02,-4.114708168106755160e-02,-3.776707322087308194e-02,-3.399901861455118662e-02,-2.990146285160773590e-02,-2.556712328305601675e-02,-2.111578171492045283e-02,-1.668165152371619414e-02,-1.239805226023776331e-02,-8.382992195835804738e-03,-4.728059398201433366e-03,-1.491316016358838238e-03,1.306113760407854544e-03,3.679989733801850276e-03,5.679364078008418415e-03,7.379981996484076545e-03,8.876015992046610778e-03,1.027135563662644017e-02,1.167119124811825774e-02,1.317462642708025489e-02,1.486925832652722865e-02,1.682840844701664895e-02,1.911066335970626820e-02,2.176025905446236919e-02,2.480672273744778666e-02,2.826296263365448216e-02,3.212180470853528980e-02,3.635169153340683107e-02,4.089293599626924597e-02,4.565616641765416622e-02,5.052417780614786719e-02,5.535769461251430906e-02,6.000511075580982484e-02,6.431570310850348582e-02,6.815446168811763183e-02,7.141539579958720851e-02,7.403014268280999621e-02,7.596995274848801494e-02,7.724124714301269790e-02,7.787724532277841283e-02,7.792947454312582067e-02,7.746242445374577901e-02,7.655231598762930745e-02,7.528829845885194605e-02,7.377312515343485699e-02,7.212087706174588608e-02,7.045066541622557743e-02,6.887650651600450702e-02,6.749429699919398673e-02,6.636720771539773855e-02,6.551155580106396425e-02,6.488689361175362103e-02,6.439582755092330968e-02,6.389798753540971987e-02,6.323701643709138398e-02,6.227290805388186606e-02,6.090959832935487900e-02,5.911053866792975037e-02,5.690001178135334348e-02,5.435189757570705466e-02,5.156990382852180005e-02,4.866471446168786630e-02,4.573354571688432318e-02,4.284556561626846893e-02,4.003388855993247897e-02,3.729346837264414100e-02,3.458414327149760686e-02,3.183767951339690899e-02,2.896681234697054408e-02,2.587457123113691415e-02,2.246358898877654636e-02,1.864592034951238070e-02,1.435357081641252738e-02,9.548886987015342206e-03,4.232637907292609997e-03,-1.552754501395152333e-03,-7.726220688380663025e-03,-1.417704063643167312e-02,-2.077793130139299685e-02,-2.739864217859228762e-02,-3.391625774538316318e-02,-4.022069533899677585e-02,-4.621684851778383452e-02,-5.182559481566519077e-02,-5.698452782582409670e-02,-6.164854003932510040e-02,-6.579077661428774093e-02,-6.940379501923946148e-02,-7.249925951005159463e-02,-7.510496055887495859e-02,-7.726047407159786218e-02,-7.901420259964328507e-02,-8.042302833282984065e-02,-8.155302447767265317e-02,-8.247832403133600887e-02,-8.327620330309407071e-02,-8.401864951844628671e-02,-8.476267716714716571e-02,-8.554250484108313901e-02,-8.636590236981625535e-02,-8.721481122785813833e-02,-8.804868339362274809e-02,-8.880979274634513698e-02,-8.943180384600209198e-02,-8.985284471164450837e-02,-9.003110300778706387e-02,-8.995781418094449255e-02,-8.966359491385671177e-02,-8.921807044267225650e-02,-8.872468685420101253e-02,-8.831180566862624481e-02,-8.812046265575478043e-02,-8.828928230943618172e-02,-8.893769747346558230e-02,-9.015000726999890246e-02,-9.196352339809353571e-02,-9.436279148568162134e-02,-9.728007720695511229e-02,-1.006016983531094616e-01,-1.041796832691624514e-01,-1.078472023373404920e-01,-1.114348050276245117e-01,-1.147846460181311118e-01,-1.177616560191505901e-01,-1.202618985220672704e-01,-1.222180554531423213e-01,-1.236012524790446321e-01,-1.244188147794673960e-01,-1.247090962084632382e-01,-1.245358853455050679e-01,-1.239846229603432520e-01,-1.231604264352900713e-01,-1.221850601324099145e-01,-1.211892052677369519e-01,-1.202993911406224081e-01,-1.196235492095481245e-01,-1.192407029583006789e-01,-1.191975412301058135e-01,-1.195108975472364971e-01,-1.201734190705376348e-01,-1.211599768729840904e-01,-1.224336958459368990e-01,-1.239518651485067846e-01,-1.256722824784916592e-01,-1.275595890523221199e-01,-1.295899885660371231e-01,-1.317526447264369127e-01,-1.340471948873572794e-01,-1.364783798991278385e-01,-1.390499786791710157e-01,-1.417605910149548343e-01,-1.446026530279834188e-01,-1.475632625937707276e-01,-1.506230291076199601e-01,-1.537503704323462395e-01,-1.568931789520446318e-01,-1.599730786551908646e-01,-1.628868241343827683e-01,-1.655165553612847062e-01,-1.677475531611912762e-01,-1.694891590206976661e-01,-1.706929815504331371e-01,-1.713640802384152340e-01,-1.715645195785992227e-01,-1.714112185872600780e-01,-1.710691560689240609e-01,-1.707381742252991608e-01,-1.706305700697054450e-01,-1.709394941800860268e-01,-1.718033631611451950e-01,-1.732749503057657847e-01,-1.753021220527146151e-01,-1.777210394021025430e-01,-1.802568536232364016e-01,-1.825261733540493037e-01,-1.840404742560299567e-01,-1.842160806531333850e-01,-1.823988339964288385e-01,-1.779084068330516744e-01,-1.701011601347811319e-01,-1.584441901830193344e-01,-1.425887157791438931e-01,-1.224305503435470788e-01,-9.814910451359043497e-02,-7.022121447905232960e-02,-3.940979185619421926e-02,-6.729731385269832611e-03,2.660461792896792049e-02,5.924504441399801313e-02,8.978375898747105455e-02,1.168346811632144377e-01,1.391214079164330153e-01,1.555697799816518900e-01,1.653994441571274010e-01,0.000000000000000000e+00,0.000000000000000000e+00,0.000000000000000000e+00,0.000000000000000000e+00,0.000000000000000000e+00,0.000000000000000000e+00,0.000000000000000000e+00,0.000000000000000000e+00,0.000000000000000000e+00,0.000000000000000000e+00,0.000000000000000000e+00,0.000000000000000000e+00,0.000000000000000000e+00,0.000000000000000000e+00,0.000000000000000000e+00,0.000000000000000000e+00,0.000000000000000000e+00,0.000000000000000000e+00,0.000000000000000000e+00,0.000000000000000000e+00,0.000000000000000000e+00,0.000000000000000000e+00,0.000000000000000000e+00,0.000000000000000000e+00,0.000000000000000000e+00,0.000000000000000000e+00,0.000000000000000000e+00,0.000000000000000000e+00,0.000000000000000000e+00,0.000000000000000000e+00,0.000000000000000000e+00,0.000000000000000000e+00,0.000000000000000000e+00,0.000000000000000000e+00,0.000000000000000000e+00,0.000000000000000000e+00,0.000000000000000000e+00,0.000000000000000000e+00,0.000000000000000000e+00,0.000000000000000000e+00,0.000000000000000000e+00,0.000000000000000000e+00,0.000000000000000000e+00,0.000000000000000000e+00,0.000000000000000000e+00,0.000000000000000000e+00,0.000000000000000000e+00,0.000000000000000000e+00,0.000000000000000000e+00,0.000000000000000000e+00,0.000000000000000000e+00,0.000000000000000000e+00,0.000000000000000000e+00,0.000000000000000000e+00,0.000000000000000000e+00,0.000000000000000000e+00,0.000000000000000000e+00,0.000000000000000000e+00,0.000000000000000000e+00,0.000000000000000000e+00,0.000000000000000000e+00,0.000000000000000000e+00,0.000000000000000000e+00,0.000000000000000000e+00,0.000000000000000000e+00,0.000000000000000000e+00,0.000000000000000000e+00,0.000000000000000000e+00,0.000000000000000000e+00,0.000000000000000000e+00,0.000000000000000000e+00,0.000000000000000000e+00,0.000000000000000000e+00,0.000000000000000000e+00,0.000000000000000000e+00,0.000000000000000000e+00,0.000000000000000000e+00,0.000000000000000000e+00,0.000000000000000000e+00,0.000000000000000000e+00,0.000000000000000000e+00,0.000000000000000000e+00,0.000000000000000000e+00,0.000000000000000000e+00,0.000000000000000000e+00,0.000000000000000000e+00,0.000000000000000000e+00,0.000000000000000000e+00,0.000000000000000000e+00,0.000000000000000000e+00,0.000000000000000000e+00,0.000000000000000000e+00,0.000000000000000000e+00,0.000000000000000000e+00,0.000000000000000000e+00,0.000000000000000000e+00,0.000000000000000000e+00,0.000000000000000000e+00,0.000000000000000000e+00,0.000000000000000000e+00,0.000000000000000000e+00,0.000000000000000000e+00,0.000000000000000000e+00,0.000000000000000000e+00,0.000000000000000000e+00,0.000000000000000000e+00,0.000000000000000000e+00,0.000000000000000000e+00,0.000000000000000000e+00,0.000000000000000000e+00,0.000000000000000000e+00,0.000000000000000000e+00,0.000000000000000000e+00
1.682053067728783158e-01,1.640162420027589385e-01,1.533160945810905229e-01,1.370155003573295394e-01,1.163740792906139132e-01,9.288466779303483634e-02,6.813685253492786364e-02,4.367633698790470559e-02,2.087457778823515256e-02,8.221101346501747190e-04,-1.574214687341902313e-02,-2.845706352859816643e-02,-3.731982482803782031e-02,-4.262814099141514629e-02,-4.489699055327878163e-02,-4.476427232732105993e-02,-4.289896312051750399e-02,-3.992346606674188059e-02,-3.635860767457065046e-02,-3.259515433000981233e-02,-2.889095700000875525e-02,-2.538938255442017497e-02,-2.215260679504245378e-02,-1.920181587635639078e-02,-1.655528491141722985e-02,-1.425523269718260815e-02,-1.237655624359455461e-02,-1.101646728829483272e-02,-1.027203522365110512e-02,-1.021709786039612725e-02,-1.088741608099733603e-02,-1.227659417838633700e-02,-1.434048566402152704e-02,-1.700608302494075255e-02,-2.018147533147722494e-02,-2.376551183242751192e-02,-2.765760892399512366e-02,-3.176790151757775960e-02,-3.602594265597979656e-02,-4.038457735835927764e-02,-4.481641405554900870e-02,-4.930343326060730724e-02,-5.382366565543349191e-02,-5.834010729554984370e-02,-6.279538288220780362e-02,-6.711264089939061872e-02,-7.120084538350876513e-02,-7.496224154849133459e-02,-7.830122157138263983e-02,-8.113527077145497868e-02,-8.340790704352879503e-02,-8.510089459238096010e-02,-8.624164901869109390e-02,-8.690337198024614129e-02,-8.719812368770624156e-02,-8.726457091690115186e-02,-8.725247024073083668e-02,-8.730567121066924730e-02,-8.754523757322911492e-02,-8.805473882026282340e-02,-8.887016828490178211e-02,-8.997646592709032665e-02,-9.131174652103463130e-02,-9.277925178387291805e-02,-9.426497881347890850e-02,-9.565636471885843872e-02,-9.685675670938842519e-02,-9.779316332662596478e-02,-9.841872861848040277e-02,-9.871289870933848409e-02,-9.868106498602503829e-02,-9.835377528567303129e-02,-9.778462629130835193e-02,-9.704590985299996198e-02,-9.622186532173400419e-02,-9.540040369581377633e-02,-9.466501192136413112e-02,-9.408875476165343144e-02,-9.373115696520313567e-02,-9.363680837112313415e-02,-9.383373006836388808e-02,-9.433070266816125093e-02,-9.511430804626033741e-02,-9.614672970944540542e-02,-9.736488630314216186e-02,-9.868134087118543563e-02,-9.998733913146211350e-02,-1.011578229817880203e-01,-1.020582573873483334e-01,-1.025541154127101451e-01,-1.025242861033265479e-01,-1.018778900517736397e-01,-1.005709042983173596e-01,-9.861728759961642388e-02,-9.609077186318779051e-02,-9.311725727276339015e-02,-8.986107495062771455e-02,-8.650913996798953454e-02,-8.325526486848744412e-02,-8.028492682326993091e-02,-7.776064725552875312e-02,-7.580902743112757913e-02,-7.451068927132142861e-02,-7.389397958846925796e-02,-7.393295380920548998e-02,-7.454999369755670180e-02,-7.562317157851627947e-02,-7.699773294198292151e-02,-7.850028597737966629e-02,-7.995431672309664950e-02,-8.119606174348947825e-02,-8.208956001469962238e-02,-8.253910807364941982e-02,-8.249745635392650989e-02,-8.196912696628291806e-02,-8.100926812063810600e-02,-7.971878218670168381e-02,-7.823623605080887167e-02,-7.672660545990189762e-02,-7.536643407753337853e-02,-7.432510353507580658e-02,-7.374330291724152942e-02,-7.371207647219171766e-02,-7.425733190813535445e-02,-7.533388066027331409e-02,-7.683018457706426718e-02,-7.858171415413245375e-02,-8.038904109952570154e-02,-8.203763375115111223e-02,-8.331882517563242441e-02,-8.405237904605618315e-02,-8.410898378110441553e-02,-8.342839644594685078e-02,-8.202872741369825194e-02,-8.000432873840533643e-02,-7.751221216432668815e-02,-7.474926820324213905e-02,-7.192483661113603655e-02,-6.923439146797523425e-02,-6.683912783319195805e-02,-6.485382484092436228e-02,-6.334326906236181776e-02,-6.232616789555042724e-02,-6.178427113989474334e-02,-6.167367828268757735e-02,-6.193554544961828862e-02,-6.250401284866792528e-02,-6.331000377742157514e-02,-6.428122479805505052e-02,-6.534051382182869128e-02,-6.640506333817575157e-02,-6.738792406816873637e-02,-6.820202005811282220e-02,-6.876650673513193257e-02,-6.901486222596073250e-02,-6.890294778903624517e-02,-6.841457747136325818e-02,-6.756333565548998388e-02,-6.639147694959512958e-02,-6.496711222145372389e-02,-6.337940312099585305e-02,-6.173084755477336455e-02,-6.012685802088971881e-02,-5.866420307820843782e-02,-5.742066346852478520e-02,-5.644813418335772187e-02,-5.576995223671193935e-02,-5.538149403158581369e-02,-5.525279900880705752e-02,-5.533291410512265751e-02,-5.555615258181385852e-02,-5.584993845860898587e-02,-5.614321710807256005e-02,-5.637418309318063814e-02,-5.649605825484949051e-02,-5.647991426562223166e-02,-5.631475584972629733e-02,-5.600663031408845832e-02,-5.557825908916880220e-02,-5.506842997004239570e-02,-5.452893599268673203e-02,-5.401771466991372311e-02,-5.358873157094806716e-02,-5.328091301523480566e-02,-5.310937433650661510e-02,-5.306129321741468591e-02,-5.309667295805180209e-02,-5.315294032473134866e-02,-5.315241998217067748e-02,-5.301244149636379077e-02,-5.265808031057449268e-02,-5.203617600147605188e-02,-5.112707913362249390e-02,-4.995035705191405023e-02,-4.856314235684041497e-02,-4.705247686102240895e-02,-4.552397499099827827e-02,-4.408865247321689523e-02,-4.284906259490361274e-02,-4.188605768881996372e-02,-4.124851427026687140e-02,-4.094869846545870495e-02,-4.096413584321468432e-02,-4.124386534599617377e-02,-4.171566079002201471e-02,-4.229210833176219597e-02,-4.287560778230128933e-02,-4.336413142759207306e-02,-4.366023994645014394e-02,-4.368421285609203064e-02,-4.338863139475823000e-02,-4.276927780238126003e-02,-4.186800138418812073e-02,-4.076651487142961966e-02,-3.957340914059417902e-02,-3.840817253763045835e-02,-3.738580870579989723e-02,-3.660459027879293253e-02,-3.613776013961336048e-02,-3.602827323101388812e-02,-3.628530066845402774e-02,-3.688236766027784552e-02,-3.775840833125738982e-02,-3.882324429884722455e-02,-3.996748438592150066e-02,-4.107473725490524974e-02,-4.203340816777902111e-02,-4.274678152891700500e-02,-4.314167145969138861e-02,-4.317596979480121250e-02,-4.284451166213935208e-02,-4.218190910540740163e-02,-4.126085870349031903e-02,-4.018532970086462902e-02,-3.907944257339589222e-02,-3.807368739158590448e-02,-3.729070334000640641e-02,-3.683330776443358850e-02,-3.677664036702688738e-02,-3.716423392035633072e-02,-3.800642614738825031e-02,-3.927993087166609804e-02,-4.092888386932704708e-02,-4.286855284819759970e-02,-4.499201692063752034e-02,-4.717841995343968753e-02,-4.930097714539512926e-02,-5.123423012911364899e-02,-5.286140398491823156e-02,-5.408251705617957844e-02,-5.482243082707247139e-02,-5.503701226459769419e-02,-5.471606122633475289e-02,-5.388301927211789494e-02,-5.259256240094137280e-02,-5.092732957410937150e-02,-4.899427358411771044e-02,-4.692003118668044287e-02,-4.484398877503720932e-02,-4.290795162568550314e-02,-4.124284386422914089e-02,-3.995489422827501469e-02,-3.911451361435189233e-02,-3.874981654727244207e-02,-3.884486889118873854e-02,-3.934183450145365551e-02,-4.014621246983646197e-02,-4.113488627884645532e-02,-4.216772067406582281e-02,-4.310364799643043310e-02,-4.382009467523758500e-02,-4.423166472013047301e-02,-4.430307472698427618e-02,-4.405309240341761384e-02,-4.354924882834251137e-02,-4.289572707326971129e-02,-4.221799994954959084e-02,-4.164712398986285258e-02,-4.130494836614232584e-02,-4.129054392942685392e-02,-4.166837810128981578e-02,-4.245948605060120840e-02,-4.363764739677692545e-02,-4.513231833384819675e-02,-4.683806487132899377e-02,-4.862824698797591633e-02,-5.037037509329988366e-02,-5.194091332219468587e-02,-5.323752346560158000e-02,-5.418759363447335498e-02,-5.475311160328481114e-02,-5.493217612047518461e-02,-5.475684828131916621e-02,-5.428705155608534033e-02,-5.360116193072448493e-02,-5.278498148579353205e-02,-5.192157679633561257e-02,-5.108456903783783337e-02,-5.033584591229647853e-02,-4.972581818916774893e-02,-4.929288217293156110e-02,-4.906018732510553093e-02,-4.903082661625710048e-02,-4.918464818340000100e-02,-4.947945871111409516e-02,-4.985704495207429754e-02,-5.025212698813841250e-02,-5.060143701388953447e-02,-5.085081289121867049e-02,-5.095987221459546967e-02,-5.090515950776822174e-02,-5.068252214047505588e-02,-5.030820908144823661e-02,-4.981733059250507273e-02,-4.925898756153161001e-02,-4.868941185747032580e-02,-4.816632837404424133e-02,-4.774708817187715837e-02,-4.748945923658359769e-02,-4.745081133341552682e-02,-4.768251851883770903e-02,-4.822050252843650825e-02,-4.907567115361487209e-02,-5.022773905703145636e-02,-5.162393673699580687e-02,-5.318228484548939705e-02,-5.479829617158409744e-02,-5.635403200107604038e-02,-5.772885269260900898e-02,-5.881141493708856582e-02,-5.951222989520657536e-02,-5.977571872402816233e-02,-5.959022601583793127e-02,-5.899366298928070823e-02,-5.807220288682412440e-02,-5.695102828884851531e-02,-5.577918102825805274e-02,-5.471255890806514532e-02,-5.389789312060867116e-02,-5.345789914224390732e-02,-5.347755288006671853e-02,-5.399362617720919466e-02,-5.499066042042751595e-02,-5.640485043729101533e-02,-5.813435101163628299e-02,-6.005241629478728915e-02,-6.202002333420549712e-02,-6.389684524028060864e-02,-6.555126664413858661e-02,-6.686999907292519307e-02,-6.776659445777294399e-02,-6.818743458887777109e-02,-6.811421509468379432e-02,-6.756289006521103147e-02,-6.657968212623775750e-02,-6.523513483688808678e-02,-6.361752594805115957e-02,-6.182665828620605153e-02,-5.996765652416392867e-02,-5.814317296477887476e-02,-5.644321029439688941e-02,-5.493435093325766544e-02,-5.365187925298237764e-02,-5.259732767326152220e-02,-5.174158815223387636e-02,-5.103196599501872571e-02,-5.040111537022084337e-02,-4.977634238720662213e-02,-4.908857736157273138e-02,-4.828084264877933324e-02,-4.731599312078649949e-02,-4.618261911520656071e-02,-4.489707213013462844e-02,-4.350040634985580940e-02,-4.205150013917102747e-02,-4.061912625012346900e-02,-3.927484208052393205e-02,-3.808688202130801337e-02,-3.711471754529307304e-02,-3.640425721276891596e-02,-3.598361075868151959e-02,-3.585933216956962988e-02,-3.601379383211058410e-02,-3.640504935462291619e-02,-3.697018309993155977e-02,-3.763173035898145780e-02,-3.830530287388646954e-02,-3.890664940843217845e-02,-3.935813293543242997e-02,-3.959571108779742082e-02,-3.957651046906692643e-02,-3.928553738873206969e-02,-3.873967509791256814e-02,-3.798764260183870589e-02,-3.710544541671531582e-02,-3.618786371804433993e-02,-3.533722944576719177e-02,-3.465092259828977256e-02,-3.420909139009413458e-02,-3.406427746219287817e-02,-3.423467020911550446e-02,-3.470234096736975887e-02,-3.541682601080345383e-02,-3.630301398128476381e-02,-3.727107944757265812e-02,-3.822589639016800434e-02,-3.907435908285978449e-02,-3.973095663653292142e-02,-4.012340035902888652e-02,-4.019956045663268529e-02,-3.993449282164061864e-02,-3.933413815514628237e-02,-3.843278433086622786e-02,-3.728453761661749966e-02,-3.595219810917914954e-02,-3.449784943029186174e-02,-3.297810470878849431e-02,-3.144420095901268725e-02,-2.994429756157385158e-02,-2.852437875305717865e-02,-2.722608160225181706e-02,-2.608289191405048849e-02,-2.511750871233634982e-02,-2.434171350626408714e-02,-2.375760641962341643e-02,-2.335793181115706357e-02,-2.312409141095657025e-02,-2.302260564653047306e-02,-2.300282986031164378e-02,-2.299901198671371744e-02,-2.293789845729893653e-02,-2.275059741091536858e-02,-2.238586312306636503e-02,-2.182155589992810715e-02,-2.107149775643767098e-02,-2.018627653865079363e-02,-1.924829135792516591e-02,-1.836243853361524750e-02,-1.764365120477521046e-02,-1.720187968465482220e-02,-1.712591227404769781e-02,-1.746950506873644338e-02,-1.824368660361051081e-02,-1.941665004668521183e-02,-2.091985143870686570e-02,-2.265781961298232380e-02,-2.451917263002966613e-02,-2.638707533922568516e-02,-2.814896763515094616e-02,-2.970627419545150347e-02,-3.098378277757826357e-02,-3.193670670470035583e-02,-3.255292503279579031e-02,-3.284929448222285303e-02,-3.286361467091723082e-02,-3.264608407640673393e-02,-3.225426439109424503e-02,-3.175280315491370298e-02,-3.121496378822912615e-02,-3.072127347213200049e-02,-3.035289238918829208e-02,-3.018095294197986264e-02,-3.025532028446354521e-02,-3.059631756263440222e-02,-3.119136820974439950e-02,-3.199650146018062635e-02,-3.294153951700497934e-02,-3.393775175780019970e-02,-3.488735048736659600e-02,-3.569441492173754116e-02,-3.627596474513159613e-02,-3.657103558518547126e-02,-3.654614612769172682e-02,-3.619716405524688041e-02,-3.554892600848323647e-02,-3.465401436147218933e-02,-3.359077773337491857e-02,-3.245906930636386495e-02,-3.137187622706557460e-02,-3.044285847233499029e-02,-2.977238805527327933e-02,-2.943547221192019739e-02,-2.947369240858907849e-02,-2.989187624912498231e-02,-3.065951197619395940e-02,-3.171605941294665387e-02,-3.297800553848948685e-02,-3.434536738736245626e-02,-3.570740217528728389e-02,-3.694937969602211936e-02,-3.796183037690120665e-02,-3.865157301684753188e-02,-3.895267252303722533e-02,-3.883587932034600343e-02,-3.831545322859701563e-02,-3.745172226514257435e-02,-3.634758417641205386e-02,-3.513833332051140984e-02,-3.397551788909004833e-02,-3.300646629031562390e-02,-3.235273479426908211e-02,-3.209245270778655901e-02,-3.225110478843513928e-02,-3.280237712995794086e-02,-3.367734026565853689e-02,-3.477820988795287532e-02,-3.599255836284324245e-02,-3.720501744310639874e-02,-3.830589828163676741e-02,-3.919814824699432293e-02,-3.980390404344073818e-02,-4.007036448452305777e-02,-3.997393039230120321e-02,-3.952195178876380388e-02,-3.875186828869789379e-02,-3.772759803486722130e-02,-3.653330761613642064e-02,-3.526510873402838309e-02,-3.402117426619270801e-02,-3.289103700221836235e-02,-3.194622431046132555e-02,-3.123492476643902754e-02,-3.078111543054035462e-02,-3.058571958259981641e-02,-3.062728966382971194e-02,-3.086190781114132517e-02,-3.122378882627784361e-02,-3.162838617393403523e-02,-3.197908566340006836e-02,-3.217749937250139608e-02,-3.213632104763750053e-02,-3.179275988008879728e-02,-3.111994565633259546e-02,-3.013386963693325329e-02,-2.889462089091211425e-02,-2.750210466775808785e-02,-2.608695066151971859e-02,-2.479708852674081601e-02,-2.378060544476773980e-02,-2.316649156809625493e-02,-2.304613798413873357e-02,-2.345915319607736263e-02,-2.438688195459153343e-02,-2.575568279032296876e-02,-2.744923696643645009e-02,-2.932603263874556179e-02,-3.123701189904344588e-02,-3.303979329315393648e-02,-3.460840861297805049e-02,-3.583981173855654151e-02,-3.665937555721510838e-02,-3.702633713568898033e-02,-3.693807571119173128e-02,-3.643133780009263217e-02,-3.557904265643008213e-02,-3.448227938447637891e-02,-3.325848379300696406e-02,-3.202805452164111943e-02,-3.090178177069728346e-02,-2.997037251940862582e-02,-2.929622381731008737e-02,-2.890745881452006644e-02,-2.879504481699351331e-02,-2.891466023594724613e-02,-2.919468181793632988e-02,-2.954957110541563126e-02,-2.989527975621431369e-02,-3.016248055699651681e-02,-3.030514059131069610e-02,-3.030432651711761557e-02,-3.016808757589830442e-02,-2.992777594938456076e-02,-2.963107365741345783e-02,-2.933328171007037327e-02,-2.908956633899367761e-02,-2.895030495177549484e-02,-2.896027356070442899e-02,-2.916115050992066499e-02,-2.959506022445545712e-02,-3.030517223555024078e-02,-3.133005109990576187e-02,-3.269199158349113399e-02,-3.438333355321113866e-02,-3.635602203996304155e-02,-3.851831689124105007e-02,-4.074023022532402560e-02,-4.286702764839141200e-02,-4.473821572564372351e-02,-4.620848717411413231e-02,-4.716738944502874703e-02,-4.755508799143923215e-02,-4.737174309652437271e-02,-4.667840635949106753e-02,-4.558898372834280233e-02,-4.425512431441949029e-02,-4.284734991794365844e-02,-4.153602717119382615e-02,-4.047522357751736494e-02,-3.979069324698882026e-02,-3.957094018345368863e-02,-3.985977155039942266e-02,-4.065038936403056469e-02,-4.188267977258531422e-02,-4.344536443347005866e-02,-4.518367106191518295e-02,-4.691224699197263370e-02,-4.843235649329082071e-02,-4.955184682388750345e-02,-5.010597611059464107e-02,-4.997684083743056394e-02,-4.910894226073703184e-02,-4.751883883897582705e-02,-4.529772189072415328e-02,-4.260643180529583018e-02,-3.966275395194506642e-02,-3.672151404762263177e-02,-3.404931914413790450e-02,-3.189686857839039991e-02,-3.047186459800695080e-02,-2.991512440370757211e-02,-3.028237556685162146e-02,-3.153460482058510761e-02,-3.353970656662721983e-02,-3.608635433375717572e-02,-3.890833742392908051e-02,-4.171593931852945331e-02,-4.423018121819630166e-02,-4.621500188321454872e-02,-4.750248695100562496e-02,-4.800784061732546459e-02,-4.773290484108695664e-02,-4.675868208967388223e-02,-4.522859820735739694e-02,-4.332551645581766281e-02,-4.124673958683547359e-02,-3.918166004044567469e-02,-3.729556343342525782e-02,-3.572067662594984733e-02,-3.455303286413650282e-02,-3.385235416543802556e-02,-3.364267049618202554e-02,-3.391325141900922852e-02,-3.462102985453880538e-02,-3.569559588082549251e-02,-3.704611104408450650e-02,-3.856827447206078591e-02,-4.015032487383830839e-02,-4.167873802093789021e-02,-4.304485385054074992e-02,-4.415287044748793938e-02,-4.492834603061608006e-02,-4.532542152029624127e-02,-4.533099003960503609e-02,-4.496508936483410018e-02,-4.427792531374170892e-02,-4.334426455885362350e-02,-4.225607809541511578e-02,-4.111463908245879817e-02,-4.002287327533882166e-02,-3.907763024706849969e-02,-3.836109288053452665e-02,-3.793162165252485923e-02,-3.781617658669381155e-02,-3.800724439752037331e-02,-3.846582616122073278e-02,-3.912932456059652758e-02,-3.992107131521392682e-02,-4.075849251640950577e-02,-4.155922478611676074e-02,-4.224629434693136232e-02,-4.275319259841885156e-02,-4.302859628492401722e-02,-4.304014331718521158e-02,-4.277690540106907080e-02,-4.225031042456119101e-02,-4.149349281220606617e-02,-4.055953296137346925e-02,-3.951886194346173470e-02,-3.845506051486900778e-02,-3.745786650202632961e-02,-3.661332301450914706e-02,-3.599282429515410914e-02,-3.564397363102591448e-02,-3.558566026280971656e-02,-3.580784718633266139e-02,-3.627471534358633204e-02,-3.692915450191517485e-02,-3.769740272434089073e-02,-3.849419606027732615e-02,-3.922925734496184730e-02,-3.981499781146603106e-02,-4.017484591436130265e-02,-4.025188322209986153e-02,-4.001684050368756879e-02,-3.947334402595429476e-02,-3.865847610299653903e-02,-3.763849343396730857e-02,-3.650106374510963397e-02,-3.534516314232413747e-02,-3.426911942224700885e-02,-3.335806144942090462e-02,-3.267330371543031992e-02,-3.224596779539510433e-02,-3.207555721099575319e-02,-3.213266666742881777e-02,-3.236426907381752954e-02,-3.270025431563989421e-02,-3.306082042882725613e-02,-3.336497085522267120e-02,-3.353993706220920884e-02,-3.353020410567945919e-02,-3.330409483459630809e-02,-3.285618685805111183e-02,-3.220504464367838354e-02,-3.138731799190271760e-02,-3.045039844705517418e-02,-2.944597897816873810e-02,-2.842602250606933792e-02,-2.744106483449078315e-02,-2.653927395994983701e-02,-2.576452581819416165e-02,-2.515306258970699538e-02,-2.472958587938815442e-02,-2.450371049175634544e-02,-2.446713613257971154e-02,-2.459184230799004930e-02,-2.482991395160009940e-02,-2.511539750582653802e-02,-2.536816472133632261e-02,-2.549990363311417305e-02,-2.542261587441427967e-02,-2.505946492165646994e-02,-2.435648809261086942e-02,-2.329229333921500542e-02,-2.188266171970977558e-02,-2.017886540951268834e-02,-1.826110998078669251e-02,-1.622922854960846123e-02,-1.419161299235699621e-02,-1.225294235430032103e-02,-1.050241217098797641e-02,-9.004824950957656185e-03,-7.795676279000877604e-03,-6.879578727200046616e-03,-6.230956900991904517e-03,-5.796994858743237736e-03,-5.503617621187104070e-03,-5.264718470475220242e-03,-4.993669693004862756e-03,-4.615293194620533578e-03,-4.075943854986027563e-03,-3.349531794409082129e-03,-2.438426024698449063e-03,-1.369346694149383391e-03,-1.850105428322349919e-04,1.067038603386606926e-03,2.346066424959043599e-03,3.627310162762191221e-03,4.906283711692086338e-03,6.197720314267367650e-03,7.530744361066208856e-03,8.942721590098401396e-03,1.047345052752619854e-02,1.215993201172672553e-02,1.403132238168848349e-02,1.610450648603874851e-02,1.838246979642947990e-02,2.085818651204473725e-02,2.352390687267497463e-02,2.638131074128488227e-02,2.944694516410066229e-02,3.275078579590791350e-02,3.632941744940024892e-02,4.021621392312386273e-02,4.443014399409784404e-02,4.896428127713806783e-02,5.377526197200255959e-02,5.877571239699767164e-02,6.383256148872978875e-02,6.877409248697717581e-02,7.340666686649394146e-02,7.753875084958523900e-02,8.100716929051367254e-02,8.370002170642956707e-02,8.557212275247585986e-02,8.665104014944796651e-02,8.703394423169805161e-02,8.687667133853312074e-02,8.637643422831442486e-02,8.574969035552253149e-02,8.520785630534477573e-02,8.493496475692527414e-02,8.507124078965386249e-02,8.570469427424828868e-02,8.687040586479838344e-02,8.855522820270564366e-02,9.070469977282458185e-02,9.322952522844378531e-02,9.601081694112188758e-02,9.890512802241015200e-02,1.017506819738328017e-01,1.043753701203560674e-01,1.066069056421076605e-01,1.082864671879490287e-01,1.092868537318600203e-01,1.095329392134782309e-01,1.090185451377804204e-01,1.078132912544356864e-01,1.060556705733544658e-01,1.039324153387907318e-01,1.016478717444955909e-01,9.939010561262370813e-02,9.730176398238450652e-02,9.546213022671533321e-02,9.388303524721897109e-02,9.251744908406367429e-02,9.127690966656633320e-02,9.005272785112611311e-02,8.873626838203492462e-02,8.723536509080133394e-02,8.548612006073266767e-02,8.346020067456270952e-02,8.116678803303516154e-02,7.864785359661570496e-02,7.596747048576708849e-02,7.319884705059111207e-02,7.041375811203033630e-02,6.767717393342470578e-02,6.504637238727672965e-02,6.257093799450512417e-02,6.029001335474509782e-02,5.822598975833362389e-02,5.637692508965025384e-02,5.471104157237121485e-02,5.316575700998404236e-02,5.165193063338716778e-02,5.006210079613324787e-02,4.828051098999560503e-02,4.619352223635123100e-02,4.370060050979447663e-02,4.072642619590612773e-02,3.723337585181472204e-02,3.323197980412619101e-02,2.878616169047064008e-02,2.401083252795897446e-02,1.906168344091200423e-02,1.411930815022028815e-02,9.370611429999314845e-03,4.990038586335416443e-03,1.122572008173710906e-03,-2.129876149564699332e-03,-4.717084988466860307e-03,-6.642452150470036683e-03,-7.957123482426227412e-03,-8.747210168811062406e-03,-9.117510763891261555e-03,-9.176794651307593198e-03,-9.029201117595725412e-03,-8.773136835418523377e-03,-8.504740144972981752e-03,-8.320414537676725994e-03,-8.313925365475104828e-03,-8.567597073708682967e-03,-9.141291216045448198e-03,-1.006356831273315204e-02,-1.132678204316937831e-02,-1.288576738050950521e-02,-1.466051445170513112e-02,-1.654419946997217478e-02,-1.841623917930793053e-02,-2.015718538970337134e-02,-2.166177254821145814e-02,-2.284839864105267168e-02,-2.366521490627709889e-02,-2.409366474106305195e-02,-2.415030502495304002e-02,-2.388744673082801237e-02,-2.339228650912018176e-02,-2.278290097101973513e-02,-2.219910998926730855e-02,-2.178778266230234698e-02,-2.168469638175770167e-02,-2.199681575896392585e-02,-2.278876650906322410e-02,-2.407558988160624427e-02,-2.582206082216535054e-02,-2.794789971665657263e-02,-3.033773221839072831e-02,-3.285434612827790174e-02,-3.535373221969807106e-02,-3.770038325783853922e-02,-3.978119434803769477e-02,-4.151616399788109896e-02,-4.286423636040130603e-02,-4.382344047292546785e-02,-4.442601753296535061e-02,-4.473080865047010524e-02,-4.481546899746535056e-02,-4.476941089454429534e-02,-4.468638905277218243e-02,-4.465577602366001958e-02,-4.475383019267737544e-02,-4.503803160387597621e-02,-4.554677424707589961e-02,-4.630401213572122449e-02,-4.732596299320283861e-02,-4.862593204650988987e-02,-5.021430953067611280e-02,-5.209390856697579397e-02,-5.425397193510417271e-02,-5.666646726585754940e-02,-5.928584157564674439e-02,-6.205102695924135520e-02,-6.488796858592266181e-02,-6.771182641116420264e-02,-7.042906849903791955e-02,-7.294040298071782780e-02,-7.514580608991104638e-02,-7.695208809962723884e-02,-7.828152032104138125e-02,-7.907929366302741958e-02,-7.931917715763586729e-02,-7.900834458262008531e-02,-7.819179718838405180e-02,-7.695505855720098654e-02,-7.542298893013696381e-02,-7.375347997844647341e-02,-7.212613375448646835e-02,-7.072625359863961292e-02,-6.972453467905809221e-02,-6.925447695342244747e-02,-6.939157363935311018e-02,-7.013826922741389636e-02,-7.141630588349202891e-02,-7.306504849733935769e-02,-7.484252816644434980e-02,-7.642634561629779721e-02,-7.741415866597931017e-02,-7.732710966668487895e-02,-7.562210539789374075e-02,-7.171865092278459364e-02,-6.504319945224314170e-02,-5.508940486879191495e-02,-4.148664886485136510e-02,-2.406407004876953346e-02,-2.896666214517007888e-03,2.167504685086518723e-02,4.905233533163673443e-02,7.840623874543556360e-02,1.087181617265259165e-01,1.388279942989416316e-01,1.674888708326914832e-01,1.934304259997441100e-01,2.154331809479896054e-01,2.324142480439907454e-01,2.435182538887200043e-01,0.000000000000000000e+00,0.000000000000000000e+00,0.000000000000000000e+00,0.000000000000000000e+00,0.000000000000000000e+00,0.000000000000000000e+00,0.000000000000000000e+00,0.000000000000000000e+00,0.000000000000000000e+00,0.000000000000000000e+00,0.000000000000000000e+00,0.000000000000000000e+00,0.000000000000000000e+00,0.000000000000000000e+00,0.000000000000000000e+00,0.000000000000000000e+00,0.000000000000000000e+00,0.000000000000000000e+00,0.000000000000000000e+00,0.000000000000000000e+00,0.000000000000000000e+00,0.000000000000000000e+00,0.000000000000000000e+00,0.000000000000000000e+00,0.000000000000000000e+00,0.000000000000000000e+00,0.000000000000000000e+00,0.000000000000000000e+00,0.000000000000000000e+00,0.000000000000000000e+00,0.000000000000000000e+00,0.000000000000000000e+00,0.000000000000000000e+00,0.000000000000000000e+00,0.000000000000000000e+00,0.000000000000000000e+00,0.000000000000000000e+00,0.000000000000000000e+00,0.000000000000000000e+00,0.000000000000000000e+00,0.000000000000000000e+00,0.000000000000000000e+00,0.000000000000000000e+00,0.000000000000000000e+00,0.000000000000000000e+00,0.000000000000000000e+00,0.000000000000000000e+00,0.000000000000000000e+00,0.000000000000000000e+00,0.000000000000000000e+00,0.000000000000000000e+00,0.000000000000000000e+00,0.000000000000000000e+00,0.000000000000000000e+00,0.000000000000000000e+00,0.000000000000000000e+00,0.000000000000000000e+00,0.000000000000000000e+00,0.000000000000000000e+00,0.000000000000000000e+00,0.000000000000000000e+00,0.000000000000000000e+00,0.000000000000000000e+00,0.000000000000000000e+00,0.000000000000000000e+00,0.000000000000000000e+00,0.000000000000000000e+00,0.000000000000000000e+00,0.000000000000000000e+00,0.000000000000000000e+00,0.000000000000000000e+00,0.000000000000000000e+00,0.000000000000000000e+00,0.000000000000000000e+00,0.000000000000000000e+00,0.000000000000000000e+00,0.000000000000000000e+00,0.000000000000000000e+00,0.000000000000000000e+00,0.000000000000000000e+00,0.000000000000000000e+00,0.000000000000000000e+00,0.000000000000000000e+00,0.000000000000000000e+00,0.000000000000000000e+00,0.000000000000000000e+00,0.000000000000000000e+00,0.000000000000000000e+00,0.000000000000000000e+00,0.000000000000000000e+00,0.000000000000000000e+00,0.000000000000000000e+00,0.000000000000000000e+00,0.000000000000000000e+00,0.000000000000000000e+00,0.000000000000000000e+00,0.000000000000000000e+00,0.000000000000000000e+00,0.000000000000000000e+00,0.000000000000000000e+00,0.000000000000000000e+00,0.000000000000000000e+00,0.000000000000000000e+00,0.000000000000000000e+00,0.000000000000000000e+00,0.000000000000000000e+00,0.000000000000000000e+00,0.000000000000000000e+00,0.000000000000000000e+00,0.000000000000000000e+00,0.000000000000000000e+00,0.000000000000000000e+00,0.000000000000000000e+00,0.000000000000000000e+00,0.000000000000000000e+00,0.000000000000000000e+00,0.000000000000000000e+00
2.482009782617428939e-01,2.462918728341128294e-01,2.380249457124308798e-01,2.240314097011046335e-01,2.052920069879441423e-01,1.830539016852421874e-01,1.587235240912202583e-01,1.337486315443125462e-01,1.095013777340023559e-01,8.717335322627274563e-02,6.769402829381150621e-02,5.168282597175504617e-02,3.943981056829869158e-02,3.097223658983250250e-02,2.604819667997983548e-02,2.426642958857798751e-02,2.513143221167500607e-02,2.812373637433384158e-02,3.275648897569154866e-02,3.861128729161663470e-02,4.534871982399413942e-02,5.269342211619433558e-02,6.040043353404113413e-02,6.821657198941834255e-02,7.585209143237733875e-02,8.297262044938802372e-02,8.921398412055807359e-02,9.421673444088640714e-02,9.767221779712746688e-02,9.936787239919840642e-02,9.921957370731014636e-02,9.728399147086688736e-02,9.375004991295431134e-02,8.891267712627651254e-02,8.313449818820708992e-02,7.680247618605784421e-02,7.028631594342628353e-02,6.390398652293326209e-02,5.789793649279983967e-02,5.242372920967035971e-02,4.755067511484156739e-02,4.327226858811891036e-02,3.952380138333536075e-02,3.620483823753423841e-02,3.320391259905323272e-02,3.042175184694340118e-02,2.778884472822025498e-02,2.527419034108130402e-02,2.288455271988541068e-02,2.065658252981026483e-02,1.864604759139627463e-02,1.691767959327292875e-02,1.553657586254220645e-02,1.456033170157362659e-02,1.403127623723220488e-02,1.396882078097419835e-02,1.436201267272800737e-02,1.516298845109838658e-02,1.628349146153519958e-02,1.759726840997804728e-02,1.894957677673973426e-02,2.017226434849614738e-02,2.110145470055274294e-02,2.159556770659310995e-02,2.155225463653680923e-02,2.092229575183893187e-02,1.971770934116133522e-02,1.801183138885461069e-02,1.593081727533914027e-02,1.363805784090958706e-02,1.131480865674344694e-02,9.141077052276295328e-03,7.279693292644313571e-03,5.863994195823746952e-03,4.987860128478466791e-03,4.697799392978206298e-03,4.988999312944848892e-03,5.807541889824498205e-03,7.058831869217267393e-03,8.620161411354429135e-03,1.035458912043484350e-02,1.212371748804021675e-02,1.379847627318667343e-02,1.526867917742950366e-02,1.645199705111515323e-02,1.730114347948638609e-02,1.780696121556536032e-02,1.799641029001255305e-02,1.792685500327158635e-02,1.767896267547296868e-02,1.734939451808772265e-02,1.704297088225400353e-02,1.686360776433044883e-02,1.690405102483920341e-02,1.723568063816645693e-02,1.790058647219727392e-02,1.890771142817334466e-02,2.023323451331783193e-02,2.182407641889200570e-02,2.360333808065227107e-02,2.547682788606860441e-02,2.734004011467721859e-02,2.908543821465112839e-02,3.061040025714188706e-02,3.182598259551683989e-02,3.266587634333276147e-02,3.309411405906650255e-02,3.310983533932833345e-02,3.274810345076601542e-02,3.207696548600964120e-02,3.119197677029094187e-02,3.020937137056127139e-02,2.925737560742569868e-02,2.846382530072389186e-02,2.794007756543107415e-02,2.776488108132215207e-02,2.797341857469206466e-02,2.855489732111763171e-02,2.945855083805943089e-02,3.060486542226929091e-02,3.189764918087879125e-02,3.323364415184519582e-02,3.450912452158275134e-02,3.562542156063052551e-02,3.649553355661689508e-02,3.705199593622768295e-02,3.725422487599008847e-02,3.709343433772882559e-02,3.659443111500126911e-02,3.581452103151039346e-02,3.483994457411815349e-02,3.377983473903285738e-02,3.275685609140277510e-02,3.189378660820779005e-02,3.129751976155749349e-02,3.104466486704252765e-02,3.117313693041004474e-02,3.168138500499712018e-02,3.253356250172143027e-02,3.366726846714004212e-02,3.500098900083766645e-02,3.644025179332879144e-02,3.788338673037762450e-02,3.922829538214914896e-02,4.038063765238130570e-02,4.126251750203588364e-02,4.182006485227637849e-02,4.202859842677986180e-02,4.189501579964916012e-02,4.145757941564538057e-02,4.078300242512560014e-02,3.996057672223779500e-02,3.909332370631968256e-02,3.828664626931922721e-02,3.763586104595879889e-02,3.721474234403754355e-02,3.706691223373590610e-02,3.720078057498003854e-02,3.758815805561071394e-02,3.816722797144405516e-02,3.885055654867843739e-02,3.953706468529329110e-02,4.012541422470476682e-02,4.052678854770579847e-02,4.067611511435739041e-02,4.054087270397813830e-02,4.012613736720204577e-02,3.947437794082409024e-02,3.865956757100957181e-02,3.777734663411771998e-02,3.693438065020735600e-02,3.623906032735926819e-02,3.579323611527548271e-02,3.568343511725793199e-02,3.597128265953009052e-02,3.668503415354943537e-02,3.781483397814613262e-02,3.931321814479320914e-02,4.110082459573719676e-02,4.307616612131193179e-02,4.512754872585954952e-02,4.714482663245413152e-02,4.902911701717938692e-02,5.069970705992218191e-02,5.209836483266345325e-02,5.319153792872556574e-02,5.397054056343793954e-02,5.444940716637695216e-02,5.466030603546994521e-02,5.464725891461458956e-02,5.445985212466904202e-02,5.414874216755538594e-02,5.376333657237632874e-02,5.335040538878130928e-02,5.295270018357996905e-02,5.260801012477282768e-02,5.234897140571323493e-02,5.220273520819492669e-02,5.218948349724248509e-02,5.232003154204614703e-02,5.259379147381647995e-02,5.299822148478770811e-02,5.350996582305397181e-02,5.409723641539040950e-02,5.472323724305505621e-02,5.535075259352651572e-02,5.594722047804115417e-02,5.648865120758230635e-02,5.696125227283994896e-02,5.736099850346929735e-02,5.769214735314281278e-02,5.796546830058833116e-02,5.819622520777635588e-02,5.840132684509585087e-02,5.859495419686320400e-02,5.878291500235011124e-02,5.895793904154824489e-02,5.909917430555038792e-02,5.917728628347228986e-02,5.916287045514281168e-02,5.903367771751671239e-02,5.877747251438884130e-02,5.839091585919017197e-02,5.787748103075068123e-02,5.724718183206497363e-02,5.651841009403180127e-02,5.571947457240079837e-02,5.488699560694804830e-02,5.406090641169960381e-02,5.327885874723466142e-02,5.257324238611010142e-02,5.197158185195994290e-02,5.149807077021623797e-02,5.117324252003123408e-02,5.101106550818497454e-02,5.101565438378313777e-02,5.118017960525678145e-02,5.148822031848789005e-02,5.191538069419170814e-02,5.242885869605549282e-02,5.298472145145340789e-02,5.352492952437706841e-02,5.397686629697882182e-02,5.425712725907696349e-02,5.427987833567111953e-02,5.396897202852702496e-02,5.327177652575666722e-02,5.217149682663453636e-02,5.069477170793003362e-02,4.891281939595863021e-02,4.693656133939245328e-02,4.490756897270528625e-02,4.298609844769809424e-02,4.133572067000867295e-02,4.010376166471339016e-02,3.939914620374523890e-02,3.927253502318510392e-02,3.970491633203439286e-02,4.060861772826485777e-02,4.184033721318728555e-02,4.322196632487358692e-02,4.456377560257039627e-02,4.568611263396223088e-02,4.643810307166860996e-02,4.671256622924803426e-02,4.645541794415971454e-02,4.566748420961017074e-02,4.439848091580732986e-02,4.273578205529135476e-02,4.079192525953979215e-02,3.869365957759253460e-02,3.657321516792406968e-02,3.456082331024920573e-02,3.277661488441046406e-02,3.132055565336262781e-02,3.026147735603752775e-02,2.962842378053322928e-02,2.940710951703150514e-02,2.954244827657004357e-02,2.994679125682677898e-02,3.051208596713332957e-02,3.112276643767942705e-02,3.166701647298572619e-02,3.204652066278641798e-02,3.218559215998936796e-02,3.203892710591298848e-02,3.159575873125820833e-02,3.087885859036672634e-02,2.993893816034527006e-02,2.884650176632311963e-02,2.768319090319190656e-02,2.653369244264252094e-02,2.547816993072994640e-02,2.458473739919802767e-02,2.390226173512187760e-02,2.345497930943393761e-02,2.324034186513583219e-02,2.322974068288136129e-02,2.337031999613112254e-02,2.358679910522111164e-02,2.378395079772742740e-02,2.385145779977898561e-02,2.367317290118980955e-02,2.314172915101947101e-02,2.217647426943803249e-02,2.073987287077002500e-02,1.884736014691163267e-02,1.656818883398969780e-02,1.401802305220989191e-02,1.134585957773560916e-02,8.718022272311321680e-03,6.301334575412802924e-03,4.246629202516656251e-03,2.673103923296025596e-03,1.654483770879102301e-03,1.209285593588521049e-03,1.298297973895905667e-03,1.831150925219569934e-03,2.680767595393469468e-03,3.701864894189581343e-03,4.748943542458082187e-03,5.690055709061767920e-03,6.414955930337473688e-03,6.839113531363440190e-03,6.905863978622858897e-03,6.587225619088185602e-03,5.882416911745990892e-03,4.813411344241140880e-03,3.418162599639095085e-03,1.743947497139691208e-03,-1.556141034205435502e-04,-2.218328499729170684e-03,-4.368826878377463779e-03,-6.516801782732304336e-03,-8.561637586303232073e-03,-1.040333792418939203e-02,-1.195646706748245726e-02,-1.316264597731655293e-02,-1.399861035685243463e-02,-1.447948183530862847e-02,-1.465824476822258707e-02,-1.462189579401491218e-02,-1.448358821242376297e-02,-1.436967533770551649e-02,-1.440207114773406696e-02,-1.467952321778499304e-02,-1.526321629899031994e-02,-1.617020379528017263e-02,-1.737436918668786023e-02,-1.881247565955836837e-02,-2.039302856795574548e-02,-2.200651729548678409e-02,-2.353629549469056503e-02,-2.486984195747933904e-02,-2.590984225057941376e-02,-2.658349093638223345e-02,-2.684813771283950032e-02,-2.669274927858345664e-02,-2.613626424696182532e-02,-2.522413448103917252e-02,-2.402352607610417842e-02,-2.261697954382346776e-02,-2.109406727728709366e-02,-1.954103285533563897e-02,-1.802997011751311315e-02,-1.661063824309026715e-02,-1.530782210733209157e-02,-1.412520959443092257e-02,-1.305436236723446150e-02,-1.208573088188016550e-02,-1.121797186249594118e-02,-1.046200154087834587e-02,-9.838081515331461788e-03,-9.367385957416995285e-03,-9.061715310706968535e-03,-8.915366789000612330e-03,-8.902267074025360660e-03,-8.979597580568845355e-03,-9.096622050278837038e-03,-9.205351137053062113e-03,-9.269370244889937188e-03,-9.268736923683773207e-03,-9.200644423131293034e-03,-9.076403158827892059e-03,-8.915902600658227872e-03,-8.741411855165977240e-03,-8.572571251860838792e-03,-8.423408056456483869e-03,-8.300950676968666536e-03,-8.204629764989779597e-03,-8.126243395717805754e-03,-8.050837572164619427e-03,-7.958964481461957771e-03,-7.830563030247305115e-03,-7.649850629741330836e-03,-7.409391065986817120e-03,-7.111276360348791313e-03,-6.764677548338108616e-03,-6.380980280546192686e-03,-5.969289321169551042e-03,-5.535269969829173346e-03,-5.084330797388693021e-03,-4.627002657117636197e-03,-4.182449624888381033e-03,-3.776996571369975551e-03,-3.437890990232200360e-03,-3.185672529990809122e-03,-3.028911516907249225e-03,-2.962843748995874597e-03,-2.970771250252236557e-03,-3.025754001604838948e-03,-3.090936704476054606e-03,-3.119324103595437925e-03,-3.055478276592465438e-03,-2.840645588737528929e-03,-2.420429680219277156e-03,-1.752716035736332813e-03,-8.139096866019192300e-04,3.974928818457324994e-04,1.860410788069659718e-03,3.533451552369670356e-03,5.358556565702202526e-03,7.264493617799908792e-03,9.169898643450297496e-03,1.098681242279258771e-02,1.262596191082461169e-02,1.400462669483770392e-02,1.505705109468107039e-02,1.574590592321085253e-02,1.607175505600437829e-02,1.607731420135685360e-02,1.584530871292820844e-02,1.549114577382123756e-02,1.515193359161986705e-02,1.497225512380039210e-02,1.508708059778035050e-02,1.560361199389187145e-02,1.658510938160711809e-02,1.804001233017004172e-02,1.991886848262331561e-02,2.211960812774521612e-02,2.449922085649148401e-02,2.688873415916471360e-02,2.910957946339083266e-02,3.099110373716257999e-02,3.238852748455914310e-02,3.319888854879395751e-02,3.337239607721183970e-02,3.291800339315230362e-02,3.190265659081913119e-02,3.044405332081290272e-02,2.869806081249182128e-02,2.684271475297523094e-02,2.506013006535463133e-02,2.351751993762598095e-02,2.234967024079004966e-02,2.164614970376788072e-02,2.144575598165227373e-02,2.173825531101061109e-02,2.247089661131259838e-02,2.355635679636372895e-02,2.488036948604039830e-02,2.631006779232367837e-02,2.770552692444790480e-02,2.893524936104177603e-02,2.989250250781710916e-02,3.050718173944761899e-02,3.074950893344356728e-02,3.062575829149432466e-02,3.016933478726712900e-02,2.943156459244803888e-02,2.847516741901243154e-02,2.737018056477170599e-02,2.618976647504053790e-02,2.500403141651740338e-02,2.387243091047474425e-02,2.283688239172377774e-02,2.191758449808600684e-02,2.111262996863820518e-02,2.040128324585015890e-02,1.974941206561362655e-02,1.911511771713699653e-02,1.845377786982532395e-02,1.772303929986948981e-02,1.688837920806707943e-02,1.592899438749996802e-02,1.484266780292197753e-02,1.364777002621793064e-02,1.238139887658609196e-02,1.109416488165498524e-02,9.843194803927288877e-03,8.685158864864567230e-03,7.670450605089316858e-03,6.838613614787100899e-03,6.214717817107123093e-03,5.806770392547505079e-03,5.604797021030791596e-03,5.582478813492182564e-03,5.701724602913725917e-03,5.919151161382881117e-03,6.192080328647653342e-03,6.481772830819049203e-03,6.753487259415275577e-03,6.975193771211843710e-03,7.117562678441291882e-03,7.156548053970234087e-03,7.077783680969890537e-03,6.881072168170827320e-03,6.583689984233783224e-03,6.221825876614364703e-03,5.849840782715347645e-03,5.537234188721838757e-03,5.362861636991335564e-03,5.405749090000634173e-03,5.733023264365878433e-03,6.387554867488942807e-03,7.379291306179290751e-03,8.683685028576243817e-03,1.024762575606802568e-02,1.199941692937391002e-02,1.385785267739762967e-02,1.573769436540902247e-02,1.755250487980475685e-02,1.921758985807647813e-02,2.065481858357511719e-02,2.179896880952694044e-02,2.260360048106197992e-02,2.304408721844379559e-02,2.311679590572403645e-02,2.283589559338183167e-02,2.223105223808623937e-02,2.134849245646002966e-02,2.025434479206187841e-02,1.903567953718481032e-02,1.779503222750053806e-02,1.663844158284460278e-02,1.566149068967111896e-02,1.493872362734346634e-02,1.451844720099547403e-02,1.442076068758633978e-02,1.463570974862156600e-02,1.512103594394765237e-02,1.580210910546222744e-02,1.657736626832468502e-02,1.733042191942285246e-02,1.794689807564819189e-02,1.833215857642220628e-02,1.842600252315991505e-02,1.821133443319592621e-02,1.771552326522133486e-02,1.700526622306787125e-02,1.617715170322030216e-02,1.534572961508074741e-02,1.462974085919190037e-02,1.413729107997193681e-02,1.395208799253341674e-02,1.412346935026731476e-02,1.466199303608170003e-02,1.554050981862566648e-02,1.669909989810970316e-02,1.805198231874315801e-02,1.949527706644277325e-02,2.091545492321748509e-02,2.219878194784886266e-02,2.324158891216725198e-02,2.396018858977347690e-02,2.429882299633643120e-02,2.423441280070070744e-02,2.377749391106054669e-02,2.296941912386465945e-02,2.187695991990862981e-02,2.058609385986100854e-02,1.919589441822301679e-02,1.781210561268693759e-02,1.654009515246463585e-02,1.547778789784303236e-02,1.470915707443861374e-02,1.429845048052726456e-02,1.428568435350183533e-02,1.468402417055934134e-02,1.547869158029160745e-02,1.662662938962426382e-02,1.805732446987962786e-02,1.967625812951655923e-02,2.137186335024141709e-02,2.302522106581848110e-02,2.452059384272384235e-02,2.575513577132529028e-02,2.664724174858005765e-02,2.714377862386162243e-02,2.722619125439119589e-02,2.691445678827273855e-02,2.626699350329214297e-02,2.537522213978680649e-02,2.435366959982433396e-02,2.332799356842508304e-02,2.242230766919246082e-02,2.174587199033392940e-02,2.138019927098641290e-02,2.136924957814262047e-02,2.171481648125148795e-02,2.237704823995403935e-02,2.327896625256177868e-02,2.431473030796333853e-02,2.536226163744283862e-02,2.629993265180446266e-02,2.702517888863029127e-02,2.747139625326508114e-02,2.761912276505597980e-02,2.749905240298827422e-02,2.718724234748429169e-02,2.679466048633371775e-02,2.645288093315913136e-02,2.629688648054880062e-02,2.644658853200514484e-02,2.699023958049262192e-02,2.797310487685913949e-02,2.939301508098821417e-02,3.120226084836930092e-02,3.331395200352451486e-02,3.561073451867682177e-02,3.795462139334015994e-02,4.019814785423208442e-02,4.219779356350687044e-02,4.382947338317182834e-02,4.500366981129121091e-02,4.567654641896236323e-02,4.585399931466856843e-02,4.558775038733828278e-02,4.496556033763688537e-02,4.409955041510506268e-02,4.311568628362064115e-02,4.214450596689450074e-02,4.131096923322433861e-02,4.072207747837947034e-02,4.045390318340658792e-02,4.054142977593650637e-02,4.097342330733626248e-02,4.169274727591350260e-02,4.260225617471153498e-02,4.357650981626812886e-02,4.447847694749650777e-02,4.517880579821480919e-02,4.557420070260594785e-02,4.560112533485426167e-02,4.524188608853300930e-02,4.452236567074985274e-02,4.350307918576481331e-02,4.226647810014712292e-02,4.090343479717942210e-02,3.950117413409562350e-02,3.813410004394168773e-02,3.685815700327205180e-02,3.570848968979127569e-02,3.469957851084642247e-02,3.382720459941670338e-02,3.307210055553360534e-02,3.240512733602737144e-02,3.179320737261740609e-02,3.120469767735273292e-02,3.061300744521170542e-02,2.999812189250144340e-02,2.934682266919572124e-02,2.865296048176035199e-02,2.791842693260059710e-02,2.715388666372807458e-02,2.637754702599318449e-02,2.561140854902045627e-02,2.487650890677121224e-02,2.418980558410168888e-02,2.356479200540095506e-02,2.301574159938498537e-02,2.256272692660764301e-02,2.223360541561712062e-02,2.206104560020820740e-02,2.207571756571198585e-02,2.229859922699862704e-02,2.273509363667948827e-02,2.337209765985816950e-02,2.417749793224897858e-02,2.510075804583474651e-02,2.607398803681554647e-02,2.701467911352467208e-02,2.783208888925982685e-02,2.843765951148350540e-02,2.875731087304199060e-02,2.874252222379845498e-02,2.837802945273809954e-02,2.768505190165452060e-02,2.671978457777503257e-02,2.556815577312910454e-02,2.433856334351781892e-02,2.315304409015796205e-02,2.213578205855494876e-02,2.139862843710134063e-02,2.102574146231134603e-02,2.106098392648320453e-02,2.150118149297543940e-02,2.229648299493575472e-02,2.335717226039046510e-02,2.456513276460343953e-02,2.578792137858167480e-02,2.689366125102502295e-02,2.776495482914562857e-02,2.830985940794127770e-02,2.846864012358873985e-02,2.821649709310598483e-02,2.756346792910873214e-02,2.655238750876210904e-02,2.525487457007830061e-02,2.376524959271975740e-02,2.219297445372173799e-02,2.065413414528542019e-02,1.926156399078412032e-02,1.811310715672530963e-02,1.727895979994444053e-02,1.679097613540915870e-02,1.663743701775260292e-02,1.676547370904820852e-02,1.709080072157135102e-02,1.751205199788455000e-02,1.792611948971929367e-02,1.824178246406363627e-02,1.839054442213633456e-02,1.833434652540263596e-02,1.806920205015686426e-02,1.762348904255433418e-02,1.705153927126292282e-02,1.642567000780699102e-02,1.582945224704213061e-02,1.535216183022457270e-02,1.508243828522669826e-02,1.509947218534601898e-02,1.546171228073323599e-02,1.619521828090036628e-02,1.728523988424440425e-02,1.867433943073778385e-02,2.026838224320517620e-02,2.194904169179503692e-02,2.358933290925422505e-02,2.506780947129815668e-02,2.627810587775843837e-02,2.713354433232814666e-02,2.756948998714654070e-02,2.754642241989844684e-02,2.705431556377308963e-02,2.611654687382821555e-02,2.479135093017942326e-02,2.317021307906659902e-02,2.137367919174943190e-02,1.954514279110724714e-02,1.784256464029423950e-02,1.642720558621086138e-02,1.544846476490173946e-02,1.502592263396993789e-02,1.523256690840244648e-02,1.608426396804011477e-02,1.753842889217324674e-02,1.950075604900769130e-02,2.183620479469297951e-02,2.438179232800255850e-02,2.696212900509890528e-02,2.940923211634976012e-02,3.158481571643217967e-02,3.340002570433942691e-02,3.482776494445113252e-02,3.590500707549031806e-02,3.672460908151483489e-02,3.741827479739401330e-02,3.813460225399882553e-02,3.901697502309726950e-02,4.018476234547578574e-02,4.171940531366849503e-02,4.365602433878439798e-02,4.598107609487539493e-02,4.863622292049035734e-02,5.152738206674022797e-02,5.453672240249234082e-02,5.753562499530043978e-02,6.039808016213917691e-02,6.301442190550400613e-02,6.530407250844261213e-02,6.722515912446413999e-02,6.877938829134441767e-02,7.001132483749882007e-02,7.100197301705876707e-02,7.185765228662971404e-02,7.269602699843755178e-02,7.363146583071963902e-02,7.476209413274050031e-02,7.616094748461110786e-02,7.787294896255718413e-02,7.991749500904622716e-02,8.229391245203138139e-02,8.498625015930495741e-02,8.796600036869622885e-02,9.119388802083874812e-02,9.462162074745307516e-02,9.819251541477244660e-02,1.018396477373772202e-01,1.054819951358006574e-01,1.090210166620562138e-01,1.123412497933987259e-01,1.153180772563849182e-01,1.178331779637935145e-01,1.197944721126663753e-01,1.211547131531816868e-01,1.219226740468829923e-01,1.221634589723035319e-01,1.219882336220628194e-01,1.215360775072203969e-01,1.209515965254952530e-01,1.203628665515743684e-01,1.198646851920653067e-01,1.195104258035705885e-01,1.193127035652837981e-01,1.192507823887138801e-01,1.192816437098948579e-01,1.193509772638068483e-01,1.194006009653145878e-01,1.193708996144473150e-01,1.191995400822427748e-01,1.188194442614594060e-01,1.181597293223609901e-01,1.171525678266407966e-01,1.157457816780255583e-01,1.139170414347406984e-01,1.116840404565108275e-01,1.091070008932678165e-01,1.062835408359345812e-01,1.033385684636356633e-01,1.004118711419394738e-01,9.764440261529749865e-02,9.516318597687493941e-02,9.306542163327082007e-02,9.140422777644732766e-02,9.017954324882451744e-02,8.933664501789401191e-02,8.877199951049385973e-02,8.834356825463934859e-02,8.788208495628914430e-02,8.720200499575425646e-02,8.611399876802873499e-02,8.444155043885362422e-02,8.204121991032452266e-02,7.882220643633297552e-02,7.475961829545002546e-02,6.989801045601851115e-02,6.434537448190599807e-02,5.826077107962063933e-02,5.183980221038882175e-02,4.530051587271315128e-02,3.886944829493289150e-02,3.276608941044118622e-02,2.718519937837866537e-02,2.227877061271637399e-02,1.814137355981804839e-02,1.480283340669615554e-02,1.223012954449678377e-02,1.033752976231707039e-02,9.001935890080532687e-03,8.079437173071390629e-03,7.419591247655413224e-03,6.876417630371756649e-03,6.317610944599375694e-03,5.633669362262543751e-03,4.746883305762231858e-03,3.618319381919207246e-03,2.250217866120877812e-03,6.826414312008599562e-04,-1.013837382667828486e-03,-2.746917809864489468e-03,-4.413147474650726786e-03,-5.912313414184834637e-03,-7.165088845092964370e-03,-8.129837865429468541e-03,-8.813858937852653980e-03,-9.276021431431604597e-03,-9.619423699132906291e-03,-9.974273302790822443e-03,-1.047396991202192811e-02,-1.123071747729376124e-02,-1.231766933412068755e-02,-1.376098346384405958e-02,-1.554026215840235113e-02,-1.759378184828308891e-02,-1.982618512405674716e-02,-2.211843959597003390e-02,-2.434059012520052231e-02,-2.636657304575128202e-02,-2.808842404299482717e-02,-2.942696586063560035e-02,-3.033826990518147942e-02,-3.081725812498081057e-02,-3.089916230317374390e-02,-3.065752155956170608e-02,-3.019698475132423510e-02,-2.964092828346039446e-02,-2.911619100840288563e-02,-2.873858688388390356e-02,-2.860257808911104496e-02,-2.877675256374886276e-02,-2.930453288184545896e-02,-3.020773547116343757e-02,-3.148983584970426602e-02,-3.313680908486082988e-02,-3.511574789529172541e-02,-3.737311374854026397e-02,-3.983447837184152240e-02,-4.240667361952180081e-02,-4.498203423010051910e-02,-4.744393382508488299e-02,-4.967412762247814390e-02,-5.156376066992923030e-02,-5.302854575716370311e-02,-5.402555678708749476e-02,-5.456735006439201313e-02,-5.472931642583017675e-02,-5.464741943248428019e-02,-5.450574062979396395e-02,-5.451585191555977788e-02,-5.489109479422320248e-02,-5.581825956636689984e-02,-5.742933333918561617e-02,-5.977767280791249777e-02,-6.282355985673396259e-02,-6.643221153804679258e-02,-7.038470994255603685e-02,-7.440025608594930118e-02,-7.816623917988727022e-02,-8.137112905629477477e-02,-8.373547373764587964e-02,-8.503867981128637732e-02,-8.514155130893662216e-02,-8.400408257278263457e-02,-8.169581493027618102e-02,-7.839587060256046624e-02,-7.438218001084549724e-02,-7.001107366246542285e-02,-6.568759266725977819e-02,-6.182640654503523264e-02,-5.880576756559465629e-02,-5.692047571175199577e-02,-5.634082746331528502e-02,-5.708271116792690281e-02,-5.899152462437628336e-02,-6.174060743860822903e-02,-6.484344687752990888e-02,-6.767845198260462325e-02,-6.952569782879142180e-02,-6.961534844029726443e-02,-6.718657171588442167e-02,-6.155440671794927543e-02,-5.218021541921321477e-02,-3.873838917464392240e-02,-2.116937223491210593e-02,2.904989580066257796e-04,2.510741356364210725e-02,5.247527401764468663e-02,8.136116354715840215e-02,1.105636103241236234e-01,1.387784972981904730e-01,1.646709369628196751e-01,1.869538962283536498e-01,2.044740104785537083e-01,2.163015037492343751e-01,0.000000000000000000e+00,0.000000000000000000e+00,0.000000000000000000e+00,0.000000000000000000e+00,0.000000000000000000e+00,0.000000000000000000e+00,0.000000000000000000e+00,0.000000000000000000e+00,0.000000000000000000e+00,0.000000000000000000e+00,0.000000000000000000e+00,0.000000000000000000e+00,0.000000000000000000e+00,0.000000000000000000e+00,0.000000000000000000e+00,0.000000000000000000e+00,0.000000000000000000e+00,0.000000000000000000e+00,0.000000000000000000e+00,0.000000000000000000e+00,0.000000000000000000e+00,0.000000000000000000e+00,0.000000000000000000e+00,0.000000000000000000e+00,0.000000000000000000e+00,0.000000000000000000e+00,0.000000000000000000e+00,0.000000000000000000e+00,0.000000000000000000e+00,0.000000000000000000e+00,0.000000000000000000e+00,0.000000000000000000e+00,0.000000000000000000e+00,0.000000000000000000e+00,0.000000000000000000e+00,0.000000000000000000e+00,0.000000000000000000e+00,0.000000000000000000e+00,0.000000000000000000e+00,0.000000000000000000e+00,0.000000000000000000e+00,0.000000000000000000e+00,0.000000000000000000e+00,0.000000000000000000e+00,0.000000000000000000e+00,0.000000000000000000e+00,0.000000000000000000e+00,0.000000000000000000e+00,0.000000000000000000e+00,0.000000000000000000e+00,0.000000000000000000e+00,0.000000000000000000e+00,0.000000000000000000e+00,0.000000000000000000e+00,0.000000000000000000e+00,0.000000000000000000e+00,0.000000000000000000e+00,0.000000000000000000e+00,0.000000000000000000e+00,0.000000000000000000e+00,0.000000000000000000e+00,0.000000000000000000e+00,0.000000000000000000e+00,0.000000000000000000e+00,0.000000000000000000e+00,0.000000000000000000e+00,0.000000000000000000e+00,0.000000000000000000e+00,0.000000000000000000e+00,0.000000000000000000e+00,0.000000000000000000e+00,0.000000000000000000e+00,0.000000000000000000e+00,0.000000000000000000e+00,0.000000000000000000e+00,0.000000000000000000e+00,0.000000000000000000e+00,0.000000000000000000e+00,0.000000000000000000e+00,0.000000000000000000e+00,0.000000000000000000e+00,0.000000000000000000e+00,0.000000000000000000e+00,0.000000000000000000e+00,0.000000000000000000e+00,0.000000000000000000e+00,0.000000000000000000e+00,0.000000000000000000e+00,0.000000000000000000e+00,0.000000000000000000e+00,0.000000000000000000e+00,0.000000000000000000e+00,0.000000000000000000e+00,0.000000000000000000e+00,0.000000000000000000e+00,0.000000000000000000e+00,0.000000000000000000e+00,0.000000000000000000e+00,0.000000000000000000e+00,0.000000000000000000e+00,0.000000000000000000e+00,0.000000000000000000e+00,0.000000000000000000e+00,0.000000000000000000e+00,0.000000000000000000e+00,0.000000000000000000e+00,0.000000000000000000e+00
